E_1 / keV,N_1,N_2,N_3,N_4,N_5,N_6,N_7,N_8,N_9,N_10,N_11
-0.98,0,0,0,0,0,0,0,0,0,0,0
-0.93,0,0,0,0,0,0,0,0,0,0,0
-0.88,0,0,0,0,0,0,0,0,0,0,0
-0.83,0,0,0,0,0,0,0,0,0,0,0
-0.78,0,0,0,0,0,0,0,0,0,0,0
-0.73,0,0,0,0,0,0,0,0,0,0,0
-0.68,0,0,0,0,0,0,0,0,0,0,0
-0.62,0,0,0,0,0,0,0,0,0,0,0
-0.57,0,0,0,0,0,0,0,0,0,0,0
-0.52,0,0,0,0,0,0,0,0,0,0,0
-0.47,0,0,0,0,0,0,0,0,0,0,0
-0.42,0,0,0,0,0,0,0,0,0,0,0
-0.37,0,0,0,0,0,0,0,0,0,0,0
-0.32,0,0,0,0,0,0,0,0,0,0,0
-0.27,0,0,0,0,0,0,0,0,0,0,0
-0.22,0,0,0,0,0,0,0,0,0,0,0
-0.17,0,0,0,0,0,0,0,0,0,0,0
-0.12,0,0,0,0,0,0,0,0,0,0,0
-0.07,0,0,0,0,0,0,0,0,0,0,0
-0.02,0,0,0,0,0,0,0,0,0,0,0
0.03,0,0,0,0,0,0,0,0,0,0,0
0.09,0,0,0,0,0,0,0,0,0,0,0
0.14,0,0,0,0,0,0,0,0,0,0,0
0.19,0,0,0,0,0,0,0,0,0,0,0
0.24,0,0,0,0,0,0,0,0,0,0,0
0.29,0,0,0,0,0,0,0,0,0,0,1
0.34,0,0,0,0,0,0,0,0,0,0,1
0.39,0,0,0,0,0,0,0,0,0,0,2
0.44,0,0,0,0,0,0,0,0,0,0,1
0.49,0,0,0,0,1,0,0,0,0,0,1
0.54,0,0,0,0,0,0,0,0,0,0,2
0.59,0,0,0,0,0,0,0,0,0,0,1
0.64,0,0,0,0,1,0,0,0,0,0,0
0.69,1,0,0,0,0,0,0,0,0,0,0
0.74,2,0,0,0,0,0,0,0,1,0,0
0.8,2,0,0,1,0,0,1,0,0,0,0
0.85,0,0,0,0,0,1,0,0,0,0,1
0.9,0,0,0,0,0,0,0,0,0,0,1
0.95,0,0,0,0,0,0,1,1,1,0,3
1,0,0,0,0,0,0,1,0,0,0,2
1.05,4,0,0,0,0,0,1,0,1,0,1
1.1,3,0,0,0,3,1,2,0,1,0,3
1.15,6,0,0,0,2,0,1,1,3,0,4
1.2,12,0,1,0,0,0,0,0,0,0,1
1.25,12,0,0,0,3,1,1,2,0,0,11
1.3,17,0,0,1,3,1,1,1,1,0,10
1.35,21,0,1,2,8,2,1,1,6,1,17
1.4,17,1,0,1,10,1,3,8,5,0,18
1.45,31,1,2,1,17,8,4,5,6,3,35
1.51,37,2,1,6,20,5,9,6,6,0,41
1.56,34,2,0,8,23,8,12,7,10,4,37
1.61,41,5,1,8,32,13,23,17,19,5,68
1.66,47,3,7,18,38,15,23,22,18,4,57
1.71,51,7,7,20,38,21,33,22,27,12,77
1.76,62,5,8,24,58,25,39,31,37,14,92
1.81,65,9,7,25,55,24,46,29,46,15,126
1.86,54,10,10,30,58,42,52,39,64,22,138
1.91,52,13,8,48,61,43,60,46,57,19,134
1.96,57,9,13,51,63,38,75,43,59,16,153
2.01,46,5,13,60,66,40,79,68,61,24,154
2.06,39,19,16,56,58,46,95,65,77,27,173
2.11,65,22,13,81,57,59,69,64,72,27,161
2.16,53,12,10,87,65,51,83,74,83,29,189
2.22,53,10,11,94,59,59,91,67,78,29,180
2.27,54,17,12,110,55,71,80,60,87,32,184
2.32,61,15,10,146,53,64,97,88,88,29,200
2.37,64,10,5,192,58,65,73,76,105,38,201
2.42,60,18,10,213,70,57,83,91,92,32,223
2.47,64,15,11,321,50,57,102,82,116,37,191
2.52,48,18,8,403,58,68,98,79,102,46,214
2.57,74,18,13,453,82,50,109,79,118,38,174
2.62,41,12,7,563,64,67,104,77,115,44,177
2.67,48,21,6,653,67,58,112,65,125,57,213
2.72,52,16,11,711,60,59,123,75,135,71,199
2.77,55,18,8,797,58,47,94,72,180,65,217
2.82,41,14,12,845,75,65,109,78,210,65,198
2.87,56,21,10,865,63,57,93,84,231,87,215
2.93,67,17,11,829,66,69,104,74,350,107,225
2.98,64,19,7,799,87,68,105,92,423,96,214
3.03,58,15,6,774,75,59,106,80,565,131,211
3.08,64,19,12,628,72,56,113,92,745,141,206
3.13,55,18,7,587,62,63,118,89,971,173,214
3.18,64,14,11,480,82,59,127,83,1158,147,230
3.23,73,23,11,405,71,71,142,98,1392,201,211
3.28,80,19,4,314,71,73,115,92,1614,207,205
3.33,66,25,12,237,69,68,129,83,1829,203,211
3.38,75,14,5,166,71,65,118,94,2002,212,240
3.43,72,15,8,186,69,57,104,87,2071,204,225
3.48,103,15,6,126,67,59,159,106,2196,172,220
3.53,90,14,6,102,57,74,122,78,2200,173,211
3.58,115,16,4,111,63,74,126,87,2125,128,239
3.64,135,21,5,93,73,55,148,79,1971,116,224
3.69,126,13,11,70,59,72,122,96,1872,101,236
3.74,148,19,4,67,57,71,128,86,1680,104,217
3.79,149,14,6,69,67,61,144,91,1415,83,261
3.84,176,26,9,74,71,76,149,103,1231,65,226
3.89,176,17,16,64,67,77,150,77,1049,57,246
3.94,155,18,14,59,68,71,147,104,861,43,253
3.99,181,17,4,58,65,71,134,84,711,46,259
4.04,231,31,9,44,83,90,144,94,584,43,282
4.09,221,22,9,45,74,76,144,101,420,45,267
4.14,223,22,3,46,72,67,156,98,365,26,239
4.19,229,13,16,41,98,93,157,105,304,31,254
4.24,248,30,9,60,80,71,145,86,254,44,279
4.29,269,23,11,58,76,80,174,109,232,25,233
4.35,283,20,8,46,68,68,177,114,193,30,245
4.4,289,25,9,38,68,70,182,117,150,28,277
4.45,296,22,8,51,77,93,195,108,144,30,284
4.5,331,14,6,50,71,86,215,95,135,22,296
4.55,318,28,7,48,68,88,256,112,106,34,257
4.6,327,26,11,43,79,93,206,118,95,28,270
4.65,386,24,9,46,79,82,216,115,73,21,300
4.7,354,18,9,51,84,96,229,117,60,35,277
4.75,384,29,11,57,81,96,256,126,74,19,298
4.8,353,17,6,71,64,81,186,131,61,19,288
4.85,439,20,6,40,88,84,203,126,46,31,265
4.9,419,26,12,54,69,82,203,138,52,25,285
4.95,409,26,9,51,72,89,215,129,35,28,333
5,472,20,6,51,67,82,190,127,51,21,325
5.06,435,33,7,54,80,90,194,118,41,27,311
5.11,434,35,18,35,77,76,219,125,55,27,321
5.16,444,33,13,47,95,98,212,142,50,32,314
5.21,469,33,12,50,76,117,196,151,42,30,320
5.26,434,32,10,43,67,85,226,130,53,26,340
5.31,471,35,6,45,79,82,201,150,53,32,325
5.36,475,33,16,61,72,95,217,149,57,31,332
5.41,554,25,5,56,93,101,224,151,56,13,336
5.46,541,31,12,55,76,119,254,184,74,28,337
5.51,547,36,5,62,91,78,287,178,54,31,346
5.56,610,36,14,46,89,97,280,186,54,35,390
5.61,583,38,21,53,86,120,279,195,71,30,406
5.66,656,35,9,67,102,112,300,216,51,31,401
5.71,652,40,10,61,90,107,336,244,58,34,398
5.77,687,43,14,52,102,106,358,264,77,35,406
5.82,710,36,11,65,96,118,468,257,59,21,423
5.87,702,32,10,62,87,93,584,272,52,24,366
5.92,744,37,10,57,92,104,728,255,52,23,382
5.97,785,47,12,64,120,118,1190,233,56,21,380
6.02,783,45,10,68,121,111,1896,244,66,26,394
6.07,875,50,16,60,130,98,2966,213,53,27,440
6.12,875,40,11,81,134,102,4490,232,52,43,422
6.17,900,53,17,82,150,122,6725,239,61,36,414
6.22,886,55,23,98,179,119,9352,207,59,45,460
6.27,948,50,18,105,146,101,12536,235,75,37,473
6.32,974,78,19,104,177,146,14912,241,96,54,441
6.37,940,65,33,104,187,126,16735,224,87,46,501
6.42,973,73,25,114,191,152,17856,217,100,68,512
6.48,952,52,27,118,194,152,17058,247,100,44,515
6.53,1024,49,22,114,171,140,15376,272,94,66,520
6.58,1039,62,28,128,153,160,13049,238,88,62,539
6.63,1063,55,23,108,149,155,10296,246,89,55,577
6.68,1020,64,17,79,141,151,7261,265,102,41,521
6.73,1073,62,22,93,148,152,5223,273,62,42,521
6.78,1155,51,20,94,127,182,3871,269,82,45,520
6.83,1124,43,19,94,140,206,3003,291,85,52,591
6.88,1210,63,22,109,143,182,2548,372,74,49,607
6.93,1213,60,30,126,165,214,2608,503,83,43,618
6.98,1289,66,18,111,164,186,2761,668,59,43,618
7.03,1340,63,15,128,167,206,2821,1042,90,55,725
7.08,1592,70,24,153,214,188,2831,1694,64,49,850
7.13,1797,79,24,119,199,192,2765,2755,91,51,952
7.19,2025,63,18,126,193,186,2267,4252,94,55,1053
7.24,2336,77,31,150,189,175,1868,6337,91,62,1172
7.29,2793,74,33,146,231,207,1379,8820,108,66,1298
7.34,3598,73,36,119,226,193,919,11289,106,56,1230
7.39,4330,85,30,154,269,226,594,13331,101,76,1226
7.44,5527,140,35,184,279,208,388,14876,114,83,1245
7.49,6808,198,53,179,294,229,210,14899,129,70,1140
7.54,8118,303,26,181,225,232,110,13938,139,87,1048
7.59,9861,491,46,173,277,233,71,12083,142,70,1008
7.64,11228,818,23,159,284,257,75,9723,193,91,987
7.69,12308,1348,25,183,278,231,57,7410,261,96,1073
7.74,13026,2071,18,160,314,263,41,5177,363,129,1264
7.79,13035,3194,23,226,406,303,42,3503,527,169,1720
7.84,12300,4255,19,228,405,317,37,2382,676,201,2129
7.9,11183,5402,27,311,391,363,39,1721,978,295,3106
7.95,9585,6230,22,320,446,425,30,1358,1143,308,4264
8,7804,6488,22,335,437,492,37,1527,1307,356,5974
8.05,6449,6254,36,324,381,635,46,1645,1277,379,8029
8.1,5274,5522,34,311,371,875,23,1884,1274,391,10524
8.15,4406,4433,28,304,356,1349,28,2213,1126,361,12375
8.2,4073,3260,27,251,260,2094,22,2201,936,283,14244
8.25,3936,2205,20,226,283,3216,20,2205,726,235,15420
8.3,3987,1364,24,199,272,4730,20,2028,487,176,15487
8.35,4215,826,20,163,234,6741,19,1696,376,156,14610
8.4,4531,508,20,177,223,9066,27,1324,246,103,13013
8.45,4771,354,24,149,271,11157,24,1071,243,101,11037
8.5,5039,338,22,167,307,13074,22,677,203,78,8620
8.55,5255,371,18,194,291,13843,24,479,249,99,6328
8.61,4958,479,30,237,340,13587,24,273,279,93,4611
8.66,4799,652,17,249,384,12288,31,168,345,101,3234
8.71,4565,765,19,289,389,10552,30,103,457,119,2489
8.76,3940,865,16,375,407,8169,30,76,538,132,1994
8.81,3402,913,22,358,427,5548,23,45,543,133,1618
8.86,2930,812,18,361,421,3586,16,28,586,134,1459
8.91,2660,724,14,353,372,2336,25,26,560,129,1433
8.96,2413,587,12,330,330,1334,24,29,517,92,1615
9.01,2378,426,20,266,315,836,15,14,425,84,1937
9.06,2381,280,15,250,272,701,21,19,324,80,2524
9.11,2312,167,21,221,240,685,24,12,221,57,2897
9.16,2341,100,15,179,232,771,23,12,188,62,3920
9.21,2504,40,30,177,242,995,18,11,153,58,5271
9.26,2637,28,35,186,273,1301,30,13,143,36,6800
9.32,2622,19,56,188,295,1561,42,15,123,66,8231
9.37,2517,11,48,236,386,1703,43,10,120,68,9586
9.42,2587,9,61,248,396,1820,57,9,164,84,11121
9.47,2496,6,85,239,400,1909,75,13,155,86,11819
9.52,2281,5,84,267,418,1734,70,19,180,130,12017
9.57,2284,1,88,275,395,1481,101,16,151,120,11925
9.62,2265,5,87,303,355,1130,94,15,154,130,10973
9.67,2048,3,74,247,337,871,89,16,176,140,9582
9.72,2009,0,73,261,305,626,104,13,130,111,8453
9.77,1870,4,64,184,234,396,93,16,123,107,7003
9.82,1819,1,37,163,205,237,118,12,94,106,5609
9.87,1768,0,29,161,198,122,88,14,108,74,4483
9.92,1695,4,29,131,189,92,84,18,94,63,3518
9.97,1618,1,10,90,126,55,76,10,82,52,2574
10.03,1720,3,18,108,129,47,69,16,80,66,1971
10.08,1709,3,12,85,125,36,71,12,85,52,1404
10.13,1664,1,13,98,137,17,54,15,74,46,1020
10.18,1747,3,14,87,135,19,58,18,72,47,855
10.23,1648,2,5,100,154,17,60,16,82,55,644
10.28,1765,0,8,111,136,17,53,9,78,39,542
10.33,1753,1,24,93,146,20,61,13,83,59,475
10.38,1811,1,12,101,150,17,56,21,82,39,419
10.43,1710,1,12,98,151,10,42,11,98,53,388
10.48,1821,1,15,122,150,15,37,13,102,53,342
10.53,1772,1,31,106,145,10,26,12,91,53,382
10.58,1834,3,50,107,153,9,39,14,85,57,390
10.63,1844,3,52,105,184,4,28,12,74,59,452
10.68,1938,0,67,125,148,7,21,20,65,50,530
10.74,1862,2,67,108,160,9,25,17,89,64,600
10.79,1884,3,75,103,175,9,22,10,69,57,678
10.84,1927,1,74,92,209,5,26,22,74,49,775
10.89,1908,2,82,99,241,8,25,22,83,60,854
10.94,2076,4,59,128,227,9,17,22,59,71,1060
10.99,1931,2,67,128,279,10,32,26,76,83,1106
11.04,1961,0,62,123,309,10,22,38,73,68,1131
11.09,1896,2,54,155,363,12,34,44,73,80,1188
11.14,1989,2,50,164,365,20,15,47,81,95,1184
11.19,1965,0,60,175,346,7,19,62,95,97,1082
11.24,1940,0,55,190,368,11,24,51,93,99,962
11.29,1964,2,61,203,372,14,22,54,109,97,890
11.34,1828,2,63,197,366,10,21,67,100,94,747
11.39,1733,1,64,184,290,17,22,51,106,104,642
11.45,1768,2,67,181,322,9,19,64,117,114,634
11.5,1749,3,62,173,267,11,9,49,94,97,486
11.55,1671,6,35,164,250,16,18,50,108,75,501
11.6,1687,0,36,146,225,15,23,47,100,86,428
11.65,1624,3,30,119,197,7,20,33,93,86,327
11.7,1638,3,24,103,165,8,21,33,80,62,293
11.75,1625,3,21,108,158,9,19,41,87,59,270
11.8,1684,8,12,108,169,13,16,31,78,67,215
11.85,1650,8,16,83,163,14,21,36,85,52,175
11.9,1696,4,13,96,147,12,13,23,85,59,174
11.95,1752,5,14,111,160,6,19,37,102,44,159
12,1814,12,10,99,161,5,17,34,94,55,136
12.05,1763,10,6,112,152,10,24,23,98,56,138
12.1,1694,8,7,129,138,6,20,32,99,57,123
12.16,1734,7,7,123,141,6,23,22,71,38,124
12.21,1732,9,5,112,153,15,30,30,87,53,119
12.26,1666,12,8,97,149,10,28,25,85,64,140
12.31,1665,10,13,140,157,10,22,27,101,53,131
12.36,1616,6,7,110,141,13,24,14,87,42,127
12.41,1469,8,19,99,136,10,22,13,78,36,119
12.46,1513,11,11,102,119,17,41,18,77,43,140
12.51,1552,8,8,94,126,13,22,16,69,42,142
12.56,1520,7,13,100,127,15,18,13,70,55,140
12.61,1503,8,19,101,140,13,29,14,67,63,152
12.66,1490,5,8,89,133,9,26,22,74,47,164
12.71,1513,2,9,88,139,11,25,22,81,53,152
12.76,1555,3,11,95,140,22,19,17,73,49,184
12.81,1564,5,6,106,134,25,18,10,72,38,152
12.87,1477,3,12,92,127,27,20,11,59,52,144
12.92,1542,6,16,91,132,33,15,8,61,60,170
12.97,1564,4,18,78,147,39,8,9,59,57,141
13.02,1508,6,15,87,150,41,6,7,63,58,144
13.07,1491,3,14,87,148,37,15,21,70,58,146
13.12,1495,5,13,85,136,44,9,15,43,59,133
13.17,1438,7,17,81,134,48,13,10,57,60,127
13.22,1446,3,10,105,140,50,9,7,69,48,127
13.27,1438,1,13,97,164,37,4,11,52,64,109
13.32,1420,3,14,91,127,41,4,8,65,53,111
13.37,1451,6,8,91,156,39,11,11,46,59,129
13.42,1438,2,20,96,169,35,7,12,58,47,129
13.47,1374,2,26,94,156,31,5,9,56,62,116
13.52,1292,1,21,88,160,43,5,7,57,62,146
13.58,1403,3,15,91,182,27,6,16,52,67,152
13.63,1398,7,9,92,154,25,3,12,50,67,168
13.68,1426,5,12,85,172,22,2,11,50,43,165
13.73,1442,4,26,93,181,22,9,8,50,60,163
13.78,1349,1,15,96,151,14,6,10,54,51,166
13.83,1416,1,21,78,147,26,5,14,50,50,168
13.88,1340,3,22,96,176,21,4,9,42,45,165
13.93,1379,1,15,79,177,20,6,8,40,56,167
13.98,1331,1,9,87,151,16,6,22,61,64,197
14.03,1227,4,17,85,169,21,11,13,54,45,195
14.08,1220,4,10,70,171,29,5,13,53,41,178
14.13,1253,0,12,81,160,21,4,12,49,49,172
14.18,1272,6,9,71,142,25,3,11,53,54,165
14.23,1298,0,8,75,144,11,3,8,42,52,157
14.29,1250,3,11,77,173,23,7,11,40,50,149
14.34,1241,5,11,78,172,17,4,8,52,50,137
14.39,1211,4,4,66,155,13,4,13,60,51,146
14.44,1229,4,13,75,162,11,4,18,60,47,138
14.49,1293,2,14,69,165,23,4,17,56,45,120
14.54,1241,1,11,72,166,15,3,17,52,53,117
14.59,1141,3,10,62,178,14,2,15,59,44,143
14.64,1244,0,9,84,191,15,3,19,61,42,122
14.69,1148,1,8,81,171,7,3,22,53,50,126
14.74,1071,1,9,99,203,10,5,15,56,46,127
14.79,1136,1,7,84,200,5,3,17,47,45,109
14.84,1181,1,11,91,236,9,2,15,60,46,116
14.89,1100,2,14,90,276,11,3,15,64,44,111
14.94,1143,2,14,75,308,7,4,12,65,57,114
15,1167,3,12,87,383,8,3,8,50,34,104
15.05,1112,2,10,89,524,4,1,8,60,63,113
15.1,1112,1,12,68,728,5,2,11,51,54,103
15.15,1108,0,8,96,928,5,3,12,53,54,108
15.2,1095,2,15,79,1374,6,4,7,52,49,79
15.25,1100,0,8,86,1956,11,2,8,65,50,99
15.3,1135,4,14,90,2552,12,5,10,54,52,79
15.35,1152,2,16,87,3403,14,2,7,59,36,96
15.4,1155,1,15,88,4555,10,4,10,56,57,96
15.45,1114,5,12,79,5709,13,2,8,49,56,75
15.5,1109,2,14,93,6588,7,2,6,74,45,87
15.55,1148,2,16,76,7534,7,1,8,62,45,85
15.6,1065,3,9,92,7968,12,1,5,50,45,85
15.65,1026,1,13,61,8002,7,1,6,54,43,73
15.71,1010,4,16,78,7918,9,0,9,35,47,67
15.76,1010,3,19,65,7311,8,2,4,43,47,75
15.81,991,0,19,75,6412,4,3,4,46,65,94
15.86,1019,5,13,83,5184,9,2,5,49,37,86
15.91,984,2,16,79,4237,10,0,2,52,39,65
15.96,994,5,19,62,3150,5,1,1,47,46,71
16.01,1015,1,8,92,2107,9,2,2,39,43,100
16.06,947,1,15,65,1526,11,1,1,50,41,90
16.11,1054,4,24,91,974,3,3,2,42,55,76
16.16,939,1,17,92,619,8,3,1,40,54,83
16.21,962,2,27,66,428,12,3,3,45,48,103
16.26,969,0,25,48,296,4,1,2,40,49,99
16.31,969,2,24,57,261,7,1,4,35,43,93
16.36,922,0,27,66,189,6,5,1,36,51,90
16.41,892,1,35,72,194,11,5,0,32,45,73
16.47,903,3,23,61,174,9,3,4,44,37,84
16.52,904,2,31,59,180,8,2,3,34,55,83
16.57,875,0,36,67,199,6,2,2,36,47,83
16.62,902,0,33,63,171,8,0,3,40,45,90
16.67,890,0,38,44,160,17,5,3,43,54,90
16.72,878,0,35,60,172,15,2,0,47,56,99
16.77,888,0,35,52,173,10,2,3,37,37,83
16.82,835,0,43,59,171,8,0,1,41,47,87
16.87,873,1,41,66,184,12,2,1,37,39,74
16.92,815,1,53,63,158,13,3,1,35,41,78
16.97,879,0,101,76,153,10,3,0,36,52,77
17.02,827,1,151,76,174,17,2,1,43,46,67
17.07,842,1,226,64,175,10,0,0,28,43,59
17.13,830,1,333,66,207,14,0,2,32,41,62
17.18,800,2,503,67,306,13,0,1,40,42,58
17.23,844,3,695,53,377,14,1,0,44,40,49
17.28,787,0,882,63,467,10,2,1,28,35,46
17.33,753,1,1042,61,569,8,5,1,30,38,50
17.38,788,1,1225,70,739,9,3,5,45,41,65
17.43,745,2,1286,60,782,9,8,2,22,40,49
17.48,737,2,1338,72,934,7,2,2,36,29,44
17.53,750,0,1242,59,1007,5,3,1,36,43,50
17.58,756,1,1103,57,1146,1,4,2,43,45,51
17.63,801,0,911,71,1185,2,8,0,35,39,35
17.68,771,0,674,63,1111,3,3,4,38,32,38
17.73,729,1,500,71,1087,2,3,5,47,43,51
17.78,767,1,360,74,944,4,4,3,29,44,49
17.84,743,0,228,63,856,3,3,3,35,34,55
17.89,706,0,147,55,625,3,2,0,40,36,57
17.94,635,2,77,77,523,5,0,1,48,40,54
17.99,686,0,44,62,399,3,3,0,41,30,51
18.04,630,1,26,65,331,2,4,3,29,41,42
18.09,685,1,18,61,224,3,2,1,41,30,43
18.14,623,0,10,63,179,2,1,0,34,51,47
18.19,681,0,10,60,128,2,4,2,42,40,28
18.24,686,0,9,74,95,5,0,0,39,37,30
18.29,646,0,9,62,60,4,1,2,34,30,36
18.34,585,1,4,56,61,1,0,1,34,41,43
18.39,603,1,8,60,53,0,2,2,29,32,34
18.44,687,1,4,76,50,3,0,1,31,27,30
18.49,692,1,5,58,41,6,6,0,36,38,37
18.54,657,1,6,59,34,3,0,2,39,30,29
18.6,606,0,9,62,29,1,3,2,33,43,36
18.65,633,1,4,70,27,2,0,1,45,36,28
18.7,624,2,9,56,27,3,1,1,24,42,23
18.75,668,2,7,67,24,1,1,1,34,29,32
18.8,651,0,11,76,36,3,6,1,32,34,18
18.85,564,0,10,66,27,1,2,2,34,34,26
18.9,539,0,8,49,18,3,1,1,23,38,31
18.95,550,0,10,51,24,2,3,2,34,34,28
19,605,0,8,46,23,1,3,2,32,29,31
19.05,586,0,9,62,20,3,2,4,45,39,40
19.1,574,0,12,60,20,2,3,2,28,33,29
19.15,558,1,18,53,26,2,0,1,37,40,31
19.2,543,1,31,53,23,2,0,2,29,25,44
19.25,544,0,43,43,25,2,1,1,34,39,28
19.31,559,1,65,55,17,2,2,1,35,43,36
19.36,511,0,68,55,11,1,0,2,28,32,34
19.41,503,0,97,53,26,4,3,0,28,36,26
19.46,514,0,131,49,10,1,0,2,33,33,21
19.51,508,1,143,52,17,3,1,1,36,37,27
19.56,478,0,181,46,26,2,4,3,34,39,27
19.61,489,1,176,50,21,2,2,2,16,34,16
19.66,468,2,179,58,18,4,1,0,27,32,21
19.71,510,0,133,49,13,0,2,2,21,36,26
19.76,515,0,122,54,22,0,0,1,25,26,16
19.81,508,2,121,54,17,0,1,1,30,28,24
19.86,494,0,98,52,19,1,2,1,27,30,23
19.91,469,0,81,47,27,0,2,1,29,33,13
19.96,497,0,63,45,19,3,1,2,20,30,15
20.02,463,2,42,54,20,1,2,0,30,22,15
20.07,446,0,34,64,22,1,2,1,23,34,12
20.12,476,1,29,76,24,3,2,1,24,22,11
20.17,494,0,17,58,20,1,1,2,32,31,14
20.22,441,1,15,64,20,0,0,0,31,30,17
20.27,459,1,6,48,26,1,3,3,27,25,17
20.32,479,0,9,52,24,1,1,1,27,29,12
20.37,456,0,1,51,15,2,1,2,27,20,14
20.42,460,0,1,62,23,0,3,1,31,31,18
20.47,449,1,0,62,22,0,1,1,36,23,11
20.52,371,0,2,71,11,1,1,1,26,28,8
20.57,407,0,0,57,16,0,0,0,27,24,10
20.62,438,0,1,54,25,0,1,0,23,29,14
20.67,412,1,1,65,12,0,0,5,30,21,12
20.73,398,0,0,55,14,1,1,2,17,26,13
20.78,406,0,1,67,12,1,0,2,26,24,8
20.83,426,0,1,57,14,2,0,2,18,31,8
20.88,421,1,2,67,17,1,1,1,20,37,9
20.93,387,0,2,65,14,2,1,2,27,29,12
20.98,409,0,1,75,21,1,4,0,37,38,19
21.03,374,1,0,66,30,2,0,1,33,25,6
21.08,385,0,1,62,15,0,1,0,25,29,9
21.13,360,1,1,71,16,1,1,0,24,30,21
21.18,370,0,0,53,21,0,0,2,36,35,9
21.23,345,1,1,57,16,1,3,1,21,31,9
21.28,378,0,1,81,17,1,3,3,26,29,17
21.33,359,1,0,83,18,1,6,2,26,24,13
21.38,375,0,1,83,16,2,1,0,25,24,11
21.44,417,2,0,117,18,3,2,6,35,30,6
21.49,379,0,0,139,25,1,0,2,21,32,11
21.54,360,0,1,194,17,3,3,3,19,24,5
21.59,410,0,2,262,15,1,0,0,27,25,14
21.64,396,0,0,392,16,0,0,0,33,33,15
21.69,391,0,1,627,16,1,1,2,25,33,10
21.74,412,0,0,867,17,1,0,1,27,28,18
21.79,357,0,1,1173,14,1,1,0,19,31,15
21.84,415,0,1,1473,17,1,2,1,23,36,13
21.89,385,1,0,1983,22,0,2,1,35,40,16
21.94,372,0,1,2328,16,0,0,2,30,41,18
21.99,332,1,1,2687,17,1,4,0,39,48,12
22.04,357,0,2,2782,16,1,1,1,49,51,16
22.09,309,0,0,2730,17,1,2,0,48,40,15
22.15,302,0,2,2517,13,1,1,1,34,39,12
22.2,319,0,1,2307,13,1,2,1,34,38,8
22.25,294,1,1,2014,18,1,0,3,40,40,7
22.3,263,0,1,1585,19,2,1,2,25,40,5
22.35,289,0,0,1202,13,1,0,1,28,45,12
22.4,268,1,1,802,9,4,0,0,26,40,8
22.45,303,1,1,562,16,2,2,3,25,37,5
22.5,325,1,1,345,16,0,0,2,24,36,7
22.55,290,0,0,207,12,0,0,0,19,30,4
22.6,286,0,1,111,11,0,0,2,20,30,8
22.65,286,0,0,77,15,1,0,1,18,19,5
22.7,267,0,0,53,9,0,0,1,24,31,9
22.75,245,0,0,44,13,0,1,2,22,26,9
22.8,252,0,0,25,9,0,1,3,12,20,11
22.86,250,0,0,20,14,0,1,0,22,26,9
22.91,262,0,0,32,18,1,0,0,20,25,8
22.96,233,0,0,36,13,0,0,0,21,37,12
23.01,248,1,0,32,16,1,0,1,17,27,11
23.06,253,0,1,31,10,0,2,3,21,29,4
23.11,258,0,1,34,13,1,0,0,13,27,3
23.16,246,0,0,33,11,1,1,0,25,29,8
23.21,243,0,1,25,12,0,0,0,22,28,7
23.26,243,2,0,27,18,0,0,1,20,42,6
23.31,220,0,0,30,22,1,0,2,17,43,6
23.36,231,0,1,42,22,0,0,0,18,41,8
23.41,232,0,0,29,17,0,0,0,15,37,3
23.46,234,1,1,37,24,0,2,0,26,56,5
23.51,235,0,0,25,16,2,0,1,22,63,4
23.57,218,0,2,30,25,0,1,0,22,83,3
23.62,240,0,0,25,27,1,1,1,16,121,15
23.67,216,1,0,23,37,0,1,2,27,174,7
23.72,210,0,1,25,26,1,2,0,15,256,7
23.77,210,0,0,18,47,1,0,0,24,321,10
23.82,202,0,0,18,50,1,0,0,19,427,2
23.87,190,0,1,15,33,0,2,5,21,560,5
23.92,202,1,0,17,32,2,0,0,18,688,4
23.97,172,0,0,22,39,2,2,0,22,836,6
24.02,199,0,0,25,29,0,0,0,15,908,5
24.07,181,0,0,17,33,0,0,0,21,952,5
24.12,215,0,0,23,37,2,1,1,20,948,2
24.17,212,0,1,24,35,0,2,0,28,895,1
24.22,183,0,0,30,44,1,0,1,24,870,5
24.28,208,0,1,30,27,1,0,1,20,687,6
24.33,193,0,0,41,16,2,2,1,31,537,10
24.38,209,0,2,60,27,0,3,1,22,460,8
24.43,194,1,0,79,33,2,1,1,29,277,2
24.48,184,0,1,140,30,0,0,2,33,218,6
24.53,189,0,0,180,26,1,2,1,55,118,7
24.58,159,0,0,238,25,0,0,0,71,85,5
24.63,183,2,2,270,18,0,1,0,90,45,5
24.68,184,0,0,327,18,0,1,0,134,31,5
24.73,177,0,0,347,19,0,0,0,198,19,8
24.78,208,0,1,409,19,2,1,0,261,17,1
24.83,172,0,0,418,14,1,0,0,321,21,3
24.88,176,0,1,370,15,1,1,1,379,21,4
24.93,188,0,1,337,8,0,0,0,486,15,5
24.99,164,0,0,294,10,2,3,1,559,9,9
25.04,145,0,0,240,9,1,0,0,648,11,6
25.09,147,0,0,154,10,0,1,1,650,14,6
25.14,163,1,3,129,12,0,1,1,635,12,6
25.19,144,1,0,123,12,4,0,1,615,16,5
25.24,174,0,0,95,9,1,0,0,513,16,5
25.29,149,0,0,80,16,2,0,1,480,11,7
25.34,153,0,1,70,13,0,1,2,302,7,4
25.39,170,0,0,79,12,0,0,0,230,11,5
25.44,132,0,0,48,17,0,2,1,178,8,5
25.49,141,0,0,43,15,0,0,0,121,14,2
25.54,133,1,0,24,15,0,0,1,76,9,4
25.59,132,0,0,19,15,0,0,0,47,17,8
25.64,131,0,0,12,11,2,0,0,27,9,4
25.7,126,1,0,9,17,2,1,0,20,13,0
25.75,130,1,1,9,13,1,1,0,33,8,5
25.8,144,0,0,4,23,2,0,0,22,7,7
25.85,137,0,0,1,22,1,2,1,20,6,1
25.9,125,0,1,6,9,0,1,1,20,6,7
25.95,132,0,1,2,10,0,1,0,19,7,0
26,113,0,0,4,13,2,1,1,23,11,3
26.05,157,0,0,3,12,0,0,0,30,5,0
26.1,112,0,1,3,12,1,1,1,24,9,1
26.15,118,0,0,1,14,0,1,0,31,10,6
26.2,96,0,1,5,14,1,3,0,32,10,2
26.25,109,0,0,7,8,0,0,0,23,9,3
26.3,116,1,0,1,9,2,0,0,23,7,3
26.35,110,0,0,1,13,2,0,1,18,6,3
26.41,110,0,1,2,10,0,0,0,12,12,4
26.46,101,1,0,2,10,0,0,0,19,9,5
26.51,118,0,0,3,10,0,1,0,12,8,3
26.56,120,0,1,9,12,1,0,0,13,7,3
26.61,123,0,0,4,12,1,0,0,14,20,0
26.66,104,0,0,5,12,0,0,0,9,23,2
26.71,121,1,2,1,7,0,0,0,14,31,4
26.76,103,0,1,4,4,0,0,0,8,51,3
26.81,126,0,0,3,9,0,0,1,3,64,4
26.86,92,0,0,2,3,0,0,0,10,82,2
26.91,104,0,0,6,11,0,0,0,10,112,3
26.96,115,0,0,7,6,0,0,0,10,152,3
27.01,94,0,0,1,5,0,0,1,6,132,1
27.06,91,0,1,3,7,0,0,0,6,141,3
27.12,85,1,1,1,8,3,0,0,6,156,1
27.17,78,0,0,3,6,0,1,1,2,147,3
27.22,105,0,1,2,4,0,0,1,14,128,3
27.27,78,0,0,5,2,0,0,0,7,90,5
27.32,84,0,0,4,6,0,0,0,4,66,1
27.37,69,0,0,2,10,0,1,0,7,62,3
27.42,91,1,2,0,2,0,0,0,6,37,4
27.47,89,0,0,4,6,0,2,0,3,42,4
27.52,87,0,0,0,7,0,1,0,3,36,3
27.57,74,1,0,2,2,0,1,0,7,33,1
27.62,86,0,1,2,4,0,0,0,5,31,2
27.67,81,0,0,4,5,0,0,0,15,30,6
27.72,88,0,0,2,8,0,0,0,10,23,0
27.77,87,1,0,3,2,1,1,1,15,16,3
27.83,92,0,1,2,5,0,1,1,28,17,1
27.88,59,0,0,1,6,0,0,2,27,11,2
27.93,90,0,0,0,8,0,2,0,31,9,5
27.98,92,0,0,0,8,1,0,0,57,8,4
28.03,74,0,0,2,7,0,0,3,67,2,1
28.08,72,0,1,0,3,0,0,1,81,1,1
28.13,73,0,1,2,2,0,1,0,110,1,4
28.18,97,0,1,4,8,1,1,0,94,3,1
28.23,84,0,0,0,6,0,0,0,93,1,2
28.28,72,0,1,2,3,0,0,0,84,0,3
28.33,71,0,0,2,4,0,0,1,76,2,3
28.38,62,0,1,2,9,1,1,0,66,2,0
28.43,74,1,1,1,3,0,0,0,44,1,2
28.48,68,0,0,3,3,2,0,0,37,0,4
28.54,74,0,0,1,4,0,1,1,34,1,0
28.59,59,0,0,2,1,0,1,0,28,0,5
28.64,74,0,0,4,7,0,0,0,32,0,4
28.69,66,0,0,2,8,0,0,0,11,0,2
28.74,72,0,1,0,9,0,0,0,24,0,1
28.79,64,0,0,0,6,0,0,0,13,0,1
28.84,69,0,0,1,6,1,0,0,21,0,3
28.89,72,0,0,4,6,0,0,0,15,0,4
28.94,58,0,0,2,7,0,0,0,15,0,0
28.99,56,0,1,1,7,1,0,0,7,1,3
29.04,61,0,1,3,5,0,0,0,9,0,4
29.09,64,0,0,0,4,0,0,0,9,1,0
29.14,50,0,0,1,5,0,0,0,6,0,0
29.19,69,0,0,3,5,1,0,0,4,2,2
29.25,70,0,0,0,4,1,0,1,2,2,5
29.3,64,0,0,2,6,0,0,0,1,2,1
29.35,64,0,1,2,7,0,0,2,7,1,1
29.4,52,0,0,4,5,0,0,0,0,1,1
29.45,43,0,0,1,3,0,0,0,1,0,4
29.5,49,0,0,0,12,0,0,0,3,1,0
29.55,45,0,1,3,8,0,0,0,0,1,3
29.6,48,0,0,3,8,0,0,1,0,2,0
29.65,45,0,0,0,5,0,0,0,3,0,2
29.7,56,0,0,2,5,0,0,0,3,0,1
29.75,47,0,0,0,11,0,0,0,1,1,0
29.8,51,0,0,2,7,0,0,0,0,1,1
29.85,64,0,1,1,7,1,0,0,3,1,2
29.9,43,0,0,1,4,0,0,0,4,1,1
29.96,49,0,0,3,1,1,0,0,1,2,2
30.01,50,0,0,2,4,0,0,0,0,1,2
30.06,51,0,0,0,5,0,0,0,2,0,1
30.11,39,0,0,2,6,0,0,0,4,0,3
30.16,40,0,0,2,7,0,0,0,1,2,1
30.21,48,0,0,0,9,0,0,0,2,0,1
30.26,50,0,0,3,5,0,0,1,2,1,1
30.31,37,0,0,2,7,0,0,0,1,0,0
30.36,43,0,0,1,9,0,1,0,1,0,2
30.41,45,0,0,2,14,0,0,0,0,1,1
30.46,39,0,0,1,2,0,1,0,1,0,1
30.51,44,0,0,1,12,0,0,0,1,1,1
30.56,27,0,0,0,9,0,0,0,0,0,2
30.61,35,0,1,0,9,0,1,0,0,0,1
30.67,38,0,0,1,13,0,0,0,0,0,0
30.72,36,0,1,1,13,1,0,0,0,0,0
30.77,38,0,1,2,9,0,0,1,1,0,0
30.82,37,0,0,1,4,0,0,0,1,0,3
30.87,37,0,0,0,6,0,0,0,0,0,1
30.92,23,0,0,1,6,0,0,0,0,1,1
30.97,42,0,0,0,7,0,0,0,0,0,0
31.02,40,0,1,1,5,0,0,0,0,1,0
31.07,31,0,0,0,2,0,0,0,1,0,1
31.12,31,0,0,0,6,0,1,0,0,0,0
31.17,27,0,0,1,2,0,1,0,0,1,0
31.22,31,0,0,1,4,0,0,0,1,0,0
31.27,22,0,0,3,3,0,0,0,0,1,1
31.32,46,0,0,0,3,0,0,0,0,0,2
31.38,30,0,0,1,0,0,0,0,0,0,1
31.43,37,0,0,0,2,0,0,0,0,0,0
31.48,32,0,0,1,3,0,0,0,0,0,0
31.53,25,0,0,0,2,0,1,0,0,0,0
31.58,28,0,0,1,3,0,0,0,1,0,0
31.63,36,0,0,1,4,0,0,0,0,1,0
31.68,24,0,0,1,5,0,0,0,1,0,3
31.73,31,0,0,1,3,0,0,0,0,1,1
31.78,41,0,0,0,1,0,0,0,0,0,0
31.83,26,0,0,0,2,0,0,0,0,0,0
31.88,28,0,0,0,0,0,0,0,0,0,0
31.93,18,0,0,1,2,0,0,0,0,0,0
31.98,24,0,0,2,1,0,0,1,0,0,1
32.03,21,0,0,0,1,0,0,0,0,0,0
32.09,23,0,0,1,0,0,0,0,0,0,1
32.14,21,0,0,0,4,0,0,0,0,0,0
32.19,17,0,0,1,2,0,0,0,0,1,1
32.24,15,0,0,0,4,0,0,0,0,0,0
32.29,22,0,0,2,2,0,0,0,0,1,0
32.34,26,0,0,0,2,0,0,0,0,0,0
32.39,16,0,0,0,0,0,0,0,1,1,1
32.44,13,0,0,1,3,0,0,0,0,0,0
32.49,17,0,0,1,2,0,1,0,1,0,0
32.54,19,1,0,2,3,0,0,0,3,2,0
32.59,17,0,0,1,5,0,0,0,1,0,0
32.64,17,0,0,1,1,0,0,0,1,0,0
32.69,14,0,0,4,0,0,0,0,0,0,0
32.74,19,0,0,2,2,0,0,0,0,0,0
32.8,19,0,0,5,2,0,0,0,0,0,0
32.85,12,0,0,3,0,0,0,0,1,0,0
32.9,9,0,1,1,0,0,0,0,1,0,0
32.95,13,0,0,0,0,0,0,0,1,0,0
33,10,0,0,2,1,0,0,0,0,1,0
33.05,14,0,0,2,4,0,0,0,0,1,0
33.1,11,0,0,1,0,0,0,0,1,0,1
33.15,12,0,0,1,0,0,0,0,0,1,0
33.2,11,0,0,0,0,0,0,0,0,0,0
33.25,13,0,0,0,1,0,0,0,0,0,1
33.3,14,0,1,0,1,0,0,0,1,1,0
33.35,7,0,1,1,0,0,0,0,0,0,2
33.4,5,0,0,0,0,0,0,0,0,0,0
33.45,11,0,0,1,0,0,0,0,0,0,0
33.51,9,0,0,3,0,0,0,0,0,0,0
33.56,11,0,2,4,1,0,0,0,0,0,0
33.61,5,0,0,3,0,0,0,0,0,0,0
33.66,7,0,0,3,1,0,0,0,0,0,0
33.71,10,0,0,2,0,0,0,0,0,0,0
33.76,8,0,0,0,0,0,0,0,0,0,0
33.81,9,0,0,1,1,0,1,0,0,0,0
33.86,10,0,0,0,2,0,0,0,1,0,0
33.91,10,0,0,0,0,0,0,0,0,0,0
33.96,18,0,0,1,0,0,0,0,0,0,0
34.01,4,0,0,0,0,0,0,0,0,0,0
34.06,7,0,0,0,0,0,0,0,0,0,0
34.11,9,0,0,0,0,0,0,0,0,0,1
34.16,6,0,0,2,0,0,0,0,0,0,0
34.22,6,0,0,0,0,0,0,0,0,0,0
34.27,2,0,0,0,0,0,0,0,0,0,0
34.32,7,0,0,0,0,0,0,0,0,0,0
34.37,6,0,0,0,0,0,0,0,0,0,0
34.42,7,0,0,0,0,0,0,0,0,0,0
34.47,10,0,0,0,0,0,0,0,0,0,0
34.52,5,0,0,0,0,0,0,0,0,0,0
34.57,3,0,0,0,0,0,0,0,0,0,0
34.62,5,0,0,0,0,0,0,0,0,1,0
34.67,7,0,0,1,0,0,0,0,0,0,0
34.72,6,0,0,0,0,0,0,0,0,0,0
34.77,7,0,0,1,0,0,0,0,0,1,0
34.82,1,0,0,0,0,0,0,0,0,0,0
34.87,2,0,0,3,0,0,0,0,0,0,0
34.93,3,0,0,1,0,0,0,0,0,0,0
34.98,5,0,0,0,1,0,0,0,0,0,0
35.03,9,0,0,0,0,0,0,0,0,0,0
35.08,8,0,1,0,0,0,0,0,0,0,0
35.13,7,0,0,1,0,0,0,0,0,0,0
35.18,3,0,0,0,0,0,0,0,0,0,0
35.23,2,0,0,1,0,0,0,0,0,0,0
35.28,7,0,0,0,0,0,0,0,0,0,0
35.33,3,0,0,1,0,0,0,0,0,0,0
35.38,5,0,0,0,0,0,0,0,0,0,0
35.43,9,0,0,0,2,0,0,0,0,0,0
35.48,6,0,0,0,0,0,0,0,0,0,0
35.53,2,0,0,0,0,0,0,0,0,0,0
35.58,7,0,0,0,1,0,0,0,0,1,0
35.64,4,0,0,1,0,0,0,0,0,0,0
35.69,9,0,0,2,1,0,0,0,0,0,0
35.74,7,0,0,0,1,0,0,0,0,0,0
35.79,6,0,0,0,0,0,0,0,0,0,0
35.84,5,0,0,0,0,0,0,0,0,1,0
35.89,4,0,0,1,0,0,0,0,0,0,0
35.94,6,0,0,0,0,0,0,0,0,1,0
35.99,7,0,0,1,0,0,0,0,0,0,0
36.04,2,0,0,1,0,0,0,0,0,0,1
36.09,1,0,0,0,0,0,0,0,0,0,0
36.14,8,0,0,0,0,0,0,0,0,0,0
36.19,2,0,0,0,0,0,0,0,1,0,0
36.24,3,0,0,1,0,0,0,0,0,0,0
36.29,6,0,0,0,0,0,0,0,1,1,0
36.35,3,0,0,0,0,0,0,0,0,0,0
36.4,3,0,0,0,0,0,0,0,0,0,0
36.45,7,0,0,0,0,0,0,0,0,0,0
36.5,2,0,0,2,0,0,0,0,0,0,0
36.55,3,0,0,0,0,0,0,0,1,0,0
36.6,3,0,0,1,2,0,0,0,0,0,0
36.65,3,0,0,0,0,0,0,0,0,0,0
36.7,3,0,0,1,0,0,0,0,0,0,0
36.75,4,0,0,0,0,0,0,0,0,1,0
36.8,4,0,1,0,1,0,0,0,0,0,0
36.85,1,0,0,1,0,0,0,0,0,0,0
36.9,2,0,0,0,0,0,0,0,0,0,0
36.95,5,0,0,0,1,0,0,0,0,0,0
37,3,0,0,0,1,0,0,1,0,0,1
37.06,3,0,0,0,0,0,0,0,0,0,0
37.11,2,0,0,0,1,0,0,0,0,0,0
37.16,2,0,0,0,0,0,0,0,0,0,0
37.21,1,0,0,0,0,0,0,0,0,0,0
37.26,2,0,0,0,0,0,0,0,0,0,0
37.31,2,0,0,3,1,0,0,0,0,0,0
37.36,3,0,0,0,0,0,0,0,1,0,0
37.41,4,0,1,0,0,0,0,0,0,1,0
37.46,0,0,1,1,1,0,0,0,0,0,0
37.51,5,0,0,1,0,0,0,0,0,0,0
37.56,2,0,0,0,0,0,0,0,1,0,0
37.61,3,0,0,0,0,0,0,0,0,0,0
37.66,3,0,0,1,0,0,0,0,0,0,0
37.71,2,0,0,0,0,0,0,0,0,0,0
37.77,2,0,0,0,0,0,0,0,0,0,0
37.82,1,0,0,0,0,0,0,0,0,0,0
37.87,2,0,0,0,2,0,0,0,0,0,0
37.92,3,0,0,0,0,0,0,0,0,0,1
37.97,3,0,0,0,0,0,0,0,0,0,0
38.02,0,0,0,0,1,0,0,0,0,1,0
38.07,3,0,0,0,0,0,0,0,0,0,0
38.12,1,0,0,0,0,0,0,0,0,0,0
38.17,3,0,0,1,0,0,0,0,0,0,0
38.22,1,0,1,0,0,0,0,0,0,0,0
38.27,4,0,0,0,1,0,0,0,0,0,0
38.32,4,0,0,1,0,0,0,0,0,1,0
38.37,2,0,0,0,0,0,0,0,0,0,0
38.42,3,0,0,0,1,0,0,0,0,0,0
38.48,3,0,0,0,0,0,0,0,0,0,0
38.53,1,0,0,0,0,0,0,0,0,0,0
38.58,1,0,1,0,0,0,0,0,0,0,0
38.63,1,0,1,0,0,0,0,0,0,0,0
38.68,1,0,1,0,0,0,0,0,0,0,0
38.73,3,0,0,0,0,0,0,0,0,0,0
38.78,0,0,1,0,0,0,0,0,0,0,0
38.83,3,0,0,0,0,0,0,0,0,0,0
38.88,2,0,0,0,0,0,0,0,0,1,0
38.93,0,0,0,1,0,0,0,0,0,0,0
38.98,1,0,0,0,1,0,0,0,0,0,0
39.03,1,0,0,0,0,0,0,0,0,0,0
39.08,1,0,0,0,0,0,0,0,0,0,0
39.13,0,0,0,0,0,0,0,0,0,0,0
39.19,2,0,0,0,0,0,0,0,0,0,0
39.24,3,0,0,1,0,0,0,0,0,1,0
39.29,1,0,0,0,0,0,0,0,0,0,0
39.34,2,0,0,0,2,0,0,0,0,0,0
39.39,0,0,0,0,0,0,0,0,0,0,0
39.44,0,0,0,0,0,0,0,0,0,0,0
39.49,0,0,0,0,0,0,0,0,0,0,0
39.54,1,0,0,0,0,0,0,0,0,0,0
39.59,1,0,1,1,0,0,0,0,0,0,0
39.64,1,0,0,0,0,0,0,0,0,0,0
39.69,3,0,0,0,0,0,0,0,0,0,0
39.74,2,0,0,1,0,0,0,0,0,0,0
39.79,0,0,0,0,0,0,0,0,0,0,0
39.84,0,0,0,0,1,0,0,0,1,0,0
39.9,0,0,0,0,1,0,0,0,0,0,0
39.95,1,0,0,1,0,0,0,0,0,0,0
40,0,0,0,0,0,0,0,0,0,0,0
40.05,1,0,0,0,0,0,0,0,0,0,0
40.1,1,0,0,1,0,0,0,0,0,0,0
40.15,3,0,0,1,0,0,0,0,0,0,0
40.2,1,0,0,0,1,0,0,0,0,0,0
40.25,0,0,0,0,0,0,0,0,1,0,0
40.3,1,0,0,0,0,0,0,0,0,0,0
40.35,0,0,1,0,1,0,0,0,0,0,0
40.4,0,0,0,0,0,0,0,0,0,0,0
40.45,1,0,0,0,0,0,0,0,0,0,0
40.5,1,0,0,0,0,0,0,0,0,0,0
40.55,1,0,0,0,0,0,0,0,0,0,0
40.61,0,0,0,0,0,0,0,0,0,0,0
40.66,0,0,0,1,0,0,0,0,0,0,0
40.71,0,0,0,0,0,0,0,0,0,0,0
40.76,1,0,0,0,0,0,0,0,0,0,0
40.81,2,0,0,0,0,0,0,0,0,0,0
40.86,0,0,0,0,0,0,0,0,0,0,0
40.91,0,0,0,1,0,0,0,0,0,0,0
40.96,2,0,0,0,0,0,0,0,0,0,0
41.01,0,0,1,0,0,0,0,0,0,0,0
41.06,0,0,1,1,0,0,0,0,0,0,0
41.11,0,0,0,0,0,0,0,0,0,0,0
41.16,0,0,0,0,1,0,0,0,0,0,0
41.21,0,0,0,0,0,0,0,0,0,0,0
41.26,0,0,0,1,0,0,0,0,0,0,0
41.32,0,0,0,0,0,0,0,0,0,0,0
41.37,0,0,0,0,0,0,0,0,0,0,0
41.42,1,0,1,1,0,0,0,0,0,0,0
41.47,0,0,0,0,0,0,0,0,1,0,0
41.52,2,0,0,0,1,0,0,0,0,0,0
41.57,0,0,0,2,0,0,0,0,0,0,0
41.62,0,0,0,0,0,0,0,0,0,0,0
41.67,2,0,0,0,0,0,0,0,0,0,0
41.72,1,0,0,0,0,0,0,0,0,0,0
41.77,0,0,0,0,0,0,0,0,0,0,0
41.82,1,0,0,1,0,0,0,0,1,0,0
41.87,1,0,0,1,0,0,0,0,0,0,0
41.92,3,0,0,1,0,0,0,0,0,0,0
41.97,1,0,0,2,0,0,0,0,0,0,0
42.03,1,0,0,0,0,0,0,0,0,0,0
42.08,2,0,0,0,0,0,0,0,0,0,0
42.13,1,0,0,2,0,0,0,0,0,0,0
42.18,0,0,0,2,0,0,0,0,0,0,0
42.23,0,0,0,0,0,0,0,0,0,0,0
42.28,0,0,0,0,0,0,0,0,0,0,0
42.33,0,0,0,0,0,0,0,0,0,0,0
42.38,0,0,1,0,0,0,0,0,0,0,0
42.43,1,0,0,0,0,0,0,0,0,0,0
42.48,0,0,0,0,1,0,0,0,0,0,0
42.53,0,0,0,0,0,0,0,0,0,0,0
42.58,0,0,0,1,0,0,0,0,0,0,0
42.63,0,0,0,0,0,0,0,0,0,0,0
42.68,1,0,0,0,0,0,0,0,0,0,0
42.74,0,0,0,0,0,0,0,0,0,0,0
42.79,0,0,0,0,0,0,0,0,0,0,0
42.84,1,0,0,0,0,0,0,0,0,0,0
42.89,0,0,0,0,0,0,0,0,1,0,0
42.94,0,0,0,0,0,0,0,0,0,0,0
42.99,0,0,0,1,1,0,0,0,0,0,0
43.04,0,0,0,0,0,0,0,0,0,0,0
43.09,1,0,0,0,0,0,0,0,0,0,0
43.14,0,0,0,0,0,0,0,0,0,0,0
43.19,0,0,0,0,0,0,0,0,0,1,0
43.24,0,0,0,0,0,0,0,0,0,0,0
43.29,0,0,0,0,0,0,0,0,0,0,0
43.34,0,0,0,0,0,0,0,0,0,0,0
43.39,0,0,0,0,0,0,0,0,0,0,0
43.45,0,0,0,0,0,0,0,0,0,0,0
43.5,0,0,0,2,0,0,0,0,0,0,0
43.55,0,0,1,0,0,0,0,0,0,0,0
43.6,1,0,0,0,1,0,0,0,0,0,0
43.65,0,0,0,0,0,0,0,0,0,0,0
43.7,0,0,0,0,0,0,0,0,0,0,0
43.75,0,0,0,1,0,0,0,0,0,0,0
43.8,0,0,1,0,0,0,0,0,0,0,0
43.85,0,0,0,0,0,0,0,0,0,0,0
43.9,0,0,0,0,0,0,0,0,0,0,0
43.95,1,0,1,0,1,0,0,0,0,0,0
44,0,0,0,0,0,0,0,0,0,0,0
44.05,0,0,0,0,0,0,0,0,0,0,0
44.1,0,0,0,0,0,0,0,0,0,0,0
44.16,0,0,0,0,0,0,0,0,0,0,0
44.21,0,0,0,0,0,0,0,0,0,0,0
44.26,0,0,0,0,0,0,0,0,0,0,0
44.31,1,0,0,0,0,0,0,0,0,1,0
44.36,1,0,0,0,0,0,0,0,0,0,0
44.41,1,0,0,0,0,0,0,0,0,0,0
44.46,0,0,1,0,0,0,0,0,0,0,0
44.51,0,0,0,0,0,0,0,0,0,0,0
44.56,1,0,1,1,0,0,0,0,0,0,0
44.61,0,0,1,0,0,0,0,0,0,0,0
44.66,0,0,0,0,0,0,0,0,0,0,0
44.71,0,0,1,0,0,0,0,0,0,0,0
44.76,0,0,0,0,0,0,0,0,0,0,0
44.81,1,0,1,0,0,0,0,0,0,0,0
44.87,0,0,0,0,0,0,0,0,0,0,0
44.92,0,0,0,0,0,0,0,0,0,0,0
44.97,0,0,0,0,0,0,0,0,0,0,0
45.02,0,0,0,0,0,0,0,0,0,0,0
45.07,0,0,0,0,1,0,0,0,0,0,0
45.12,0,0,0,0,0,0,0,0,0,0,0
45.17,1,0,0,0,0,0,0,0,0,0,0
45.22,0,0,0,0,0,0,0,0,0,0,0
45.27,0,0,0,0,1,0,0,0,2,0,0
45.32,1,0,0,0,0,0,0,0,0,0,0
45.37,0,0,0,0,0,0,0,0,0,0,0
45.42,0,0,0,0,0,0,0,0,0,0,0
45.47,0,0,0,0,0,0,0,0,0,0,0
45.52,0,0,0,0,0,0,0,0,0,0,0
45.58,0,0,0,0,0,0,0,0,0,0,0
45.63,0,0,0,0,0,0,0,0,0,0,0
45.68,0,0,0,0,0,0,0,0,0,0,0
45.73,0,0,0,0,0,0,0,0,0,0,0
45.78,0,0,0,0,0,0,0,0,0,0,0
45.83,0,0,0,0,0,0,0,0,0,1,0
45.88,1,0,0,0,0,0,0,0,0,0,0
45.93,0,0,0,0,0,0,0,0,0,0,0
45.98,0,0,0,0,0,0,0,0,0,0,0
46.03,1,0,0,0,0,0,0,0,0,0,0
46.08,1,0,0,0,1,0,0,0,0,0,0
46.13,1,0,0,0,1,0,0,0,0,0,0
46.18,1,0,0,0,0,0,0,0,0,0,0
46.23,0,0,0,0,0,0,0,0,0,0,0
46.29,0,0,0,0,0,0,0,0,0,0,0
46.34,1,0,0,0,0,0,0,0,0,0,0
46.39,0,0,0,0,0,0,0,0,0,0,0
46.44,0,0,0,0,0,0,0,0,0,0,0
46.49,1,0,1,0,0,0,0,0,0,0,0
46.54,0,0,0,0,0,0,0,0,0,0,0
46.59,0,0,1,0,0,0,0,0,0,0,0
46.64,1,0,0,0,0,0,0,0,0,0,0
46.69,0,0,0,0,0,0,0,0,0,0,0
46.74,0,0,0,0,0,0,0,0,0,0,0
46.79,0,0,0,0,0,0,0,0,0,0,0
46.84,0,0,0,0,0,0,0,0,0,0,0
46.89,1,0,0,0,0,0,0,0,0,0,0
46.94,0,0,1,0,0,0,0,0,0,0,0
47,0,0,0,0,0,0,0,0,0,0,0
47.05,0,0,0,0,0,0,0,0,0,0,0
47.1,0,0,0,0,0,0,0,0,0,0,0
47.15,0,0,0,0,0,0,0,0,0,0,0
47.2,0,0,0,0,0,0,0,0,0,0,0
47.25,0,0,0,0,0,0,0,0,0,0,0
47.3,0,0,0,0,0,0,0,0,0,0,0
47.35,0,0,0,0,0,0,0,0,0,0,0
47.4,0,0,0,0,0,0,0,0,0,0,0
47.45,0,0,0,0,0,0,0,0,0,0,0
47.5,0,0,0,0,0,0,0,0,0,0,0
47.55,1,0,0,0,0,0,0,0,0,0,0
47.6,0,0,0,0,1,0,0,0,0,0,0
47.65,0,0,0,0,0,0,0,0,0,0,0
47.71,0,0,0,0,0,0,0,0,0,0,0
47.76,0,0,0,0,0,0,0,0,0,0,0
47.81,0,0,0,0,0,0,0,0,0,0,0
47.86,0,0,0,0,0,0,0,0,0,0,0
47.91,0,0,0,0,0,0,0,0,0,0,0
47.96,0,0,0,0,0,0,0,0,0,0,0
48.01,0,0,0,0,0,0,0,0,0,0,0
48.06,0,0,0,0,0,0,0,0,0,0,0
48.11,0,0,0,0,0,0,0,0,0,0,0
48.16,0,0,0,0,0,0,0,0,0,0,0
48.21,0,1,0,0,0,0,0,0,0,0,0
48.26,0,0,0,0,0,0,0,0,0,0,0
48.31,0,0,0,0,0,0,0,0,0,0,0
48.36,0,0,0,0,0,0,0,0,0,0,0
48.42,1,0,0,0,0,0,0,0,0,0,0
48.47,0,0,0,0,0,0,0,0,0,0,0
48.52,1,0,0,0,0,0,0,0,0,0,0
48.57,0,0,0,0,0,0,0,0,0,0,0
48.62,0,0,0,0,0,0,0,0,0,0,0
48.67,0,0,0,0,0,0,0,0,0,0,0
48.72,0,0,0,0,0,0,0,0,0,0,0
48.77,0,0,0,0,0,0,0,0,0,0,0
48.82,0,0,0,0,0,0,0,0,0,0,0
48.87,0,0,1,0,0,0,0,0,0,0,0
48.92,0,0,0,0,0,0,0,0,0,0,0
48.97,0,0,0,0,0,0,0,0,0,0,0
49.02,0,0,1,0,0,0,0,0,0,0,0
49.07,0,0,0,0,0,0,0,0,0,0,0
49.13,0,0,0,0,0,0,0,0,0,0,0
49.18,0,0,0,0,0,0,0,0,0,0,0
49.23,0,0,0,0,0,0,0,0,0,0,0
49.28,0,0,0,0,0,0,0,0,0,0,0
49.33,0,0,0,0,0,0,0,0,0,0,0
49.38,0,0,0,0,0,0,0,0,0,0,0
49.43,0,0,0,0,0,0,0,0,0,0,0
49.48,0,0,0,0,0,0,0,0,0,0,0
49.53,0,0,0,0,0,0,0,0,0,0,0
49.58,0,0,0,0,0,0,0,0,0,0,0
49.63,0,0,0,0,0,0,0,0,0,0,0
49.68,0,0,0,0,0,0,0,0,0,0,0
49.73,0,0,0,0,0,0,0,0,0,0,0
49.78,0,0,1,0,0,0,0,0,0,0,0
49.84,0,0,0,0,0,0,0,0,0,0,0
49.89,0,0,0,0,0,0,0,0,0,0,0
49.94,0,0,0,0,0,0,0,0,0,0,0
49.99,0,0,0,0,0,0,0,0,0,0,0
50.04,0,0,0,0,0,0,0,0,0,0,0
50.09,0,0,0,0,0,0,0,0,0,0,0
50.14,0,0,0,0,1,0,0,0,0,0,0
50.19,0,0,0,0,0,0,0,0,0,0,0
50.24,0,0,0,0,0,0,0,0,0,0,0
50.29,0,0,0,0,0,0,0,0,0,0,0
50.34,0,0,0,0,1,0,0,0,0,0,0
50.39,0,0,0,0,0,0,0,0,0,0,0
50.44,0,0,0,0,0,0,0,0,0,0,0
50.49,0,0,0,0,0,0,0,0,0,0,0
50.55,0,0,0,0,0,0,0,0,0,0,0
50.6,0,0,0,0,0,0,0,0,0,0,0
50.65,0,0,0,0,0,0,0,0,0,0,0
50.7,0,0,0,0,0,0,0,0,0,0,0
50.75,0,0,1,0,0,0,0,0,0,0,0
50.8,0,0,0,0,0,0,0,0,0,0,0
50.85,0,0,0,0,0,0,0,0,0,0,0
50.9,0,0,0,0,0,0,0,0,0,0,0
50.95,0,0,0,0,0,0,0,0,0,0,0
51,1,0,0,0,0,0,0,0,0,0,0
51.05,0,0,0,0,0,0,0,0,0,0,0
51.1,0,0,0,0,0,0,0,0,0,0,0
51.15,0,0,0,0,0,0,0,0,0,0,0
51.2,0,0,0,0,0,0,0,0,0,0,0
51.26,0,0,1,0,0,0,0,0,0,0,0
51.31,0,1,0,0,1,0,0,0,0,0,0
51.36,0,0,0,0,0,0,0,0,0,0,0
51.41,0,0,0,0,0,0,0,0,0,0,0
51.46,0,0,0,0,0,0,0,0,0,1,0
51.51,0,0,0,0,0,0,0,0,0,0,0
51.56,0,0,0,0,0,0,0,0,0,0,0
51.61,0,0,0,0,0,0,0,0,0,0,0
51.66,0,0,0,0,0,0,0,0,0,0,0
51.71,0,0,0,0,0,0,0,0,0,0,0
51.76,0,0,0,0,0,0,0,0,0,0,0
51.81,0,0,0,0,0,0,0,0,0,0,0
51.86,0,0,0,0,0,0,0,0,0,0,0
51.91,0,0,0,0,0,0,0,0,0,0,0
51.97,1,0,0,0,0,0,0,0,0,0,0
52.02,0,0,0,0,0,0,0,0,0,0,0
52.07,0,0,0,0,0,0,0,0,0,0,0
52.12,0,0,0,0,0,0,0,0,0,1,0
52.17,0,0,1,0,0,0,0,0,0,0,0
52.22,0,0,0,0,0,0,0,0,0,0,0
52.27,0,0,0,0,0,0,0,0,0,0,0
52.32,0,0,0,0,0,0,0,0,0,0,0
52.37,0,0,0,0,0,0,0,0,0,0,0
52.42,0,0,0,0,0,0,0,0,0,0,0
52.47,0,0,0,0,0,0,0,0,0,0,0
52.52,0,0,0,0,0,0,0,0,0,0,0
52.57,0,0,0,0,0,0,0,0,0,0,0
52.62,0,0,0,0,0,0,0,0,0,0,0
52.68,0,0,0,0,0,0,0,0,0,0,0
52.73,0,0,0,0,0,0,0,0,0,0,0
52.78,0,0,1,0,0,0,0,0,0,0,0
52.83,0,0,0,0,0,0,0,0,0,0,0
52.88,0,0,0,0,0,0,0,0,0,0,0
52.93,0,0,0,0,0,0,0,0,0,0,0
52.98,0,0,0,0,1,0,0,0,0,1,0
53.03,0,0,0,0,0,0,0,0,0,0,0
53.08,0,0,0,0,0,0,0,0,0,0,0
53.13,0,0,0,0,0,0,0,0,0,0,0
53.18,0,0,0,0,0,0,0,0,0,0,0
53.23,0,0,0,0,0,0,0,0,0,0,0
53.28,0,0,0,0,0,0,0,0,0,1,0
53.33,0,0,0,0,0,0,0,0,0,0,0
53.39,0,0,0,0,0,0,0,0,0,0,0
53.44,0,0,0,0,0,0,0,0,0,0,0
53.49,0,0,0,0,0,0,0,0,0,0,0
53.54,0,0,0,0,1,0,0,0,0,0,0
53.59,0,0,0,0,1,0,0,0,0,0,0
53.64,0,0,0,0,0,0,0,0,0,0,0
53.69,0,0,0,0,0,0,0,0,0,0,0
53.74,0,0,0,0,0,0,0,0,0,0,0
53.79,0,0,0,0,0,0,0,0,0,0,0
53.84,0,0,0,0,0,0,0,0,0,0,0
53.89,0,0,0,0,0,0,0,0,0,0,0
53.94,0,0,0,0,0,0,0,0,0,0,0
53.99,0,0,0,0,1,0,0,0,0,1,0
54.04,0,0,0,0,0,0,0,0,0,0,0
54.1,0,0,0,0,0,0,0,0,0,0,0
54.15,0,0,0,0,0,0,0,0,0,0,0
54.2,0,0,0,0,0,0,0,0,0,0,0
54.25,0,0,0,0,0,0,0,0,0,0,0
54.3,0,0,0,0,0,0,0,0,0,0,0
54.35,0,0,0,0,0,0,0,0,1,0,0
54.4,0,0,0,0,0,0,0,0,0,0,0
54.45,0,0,1,0,0,0,0,0,0,0,0
54.5,0,0,0,0,0,0,0,0,0,0,0
54.55,0,0,0,0,1,0,0,0,0,0,0
54.6,0,0,0,0,0,0,0,0,0,0,0
54.65,0,0,0,0,1,0,0,0,0,0,0
54.7,0,1,0,0,0,0,0,0,0,0,0
54.75,0,0,0,0,0,0,0,0,0,0,0
54.81,0,0,2,0,0,0,0,0,0,0,0
54.86,0,0,1,0,0,0,0,0,0,0,0
54.91,0,0,0,0,0,0,0,0,0,0,0
54.96,0,1,0,0,1,0,0,0,0,0,0
55.01,0,0,0,0,0,0,0,0,0,0,0
55.06,0,0,0,0,0,0,0,0,0,0,0
55.11,0,0,0,0,0,0,0,0,0,0,0
55.16,0,0,0,0,0,0,0,0,0,0,0
55.21,0,0,0,0,0,0,0,0,0,0,0
55.26,0,0,1,0,0,0,0,0,0,0,0
55.31,0,0,0,0,0,0,0,0,0,0,0
55.36,0,0,0,0,0,0,0,0,0,0,0
55.41,0,0,0,0,0,0,0,0,0,0,0
55.46,0,0,0,0,0,0,0,0,0,0,0
55.52,0,0,0,0,0,0,0,0,0,0,0
55.57,0,0,0,0,0,0,0,0,0,0,0
55.62,0,0,0,0,0,0,0,0,0,0,0
55.67,0,0,0,0,0,0,0,0,0,0,0
55.72,0,0,0,0,0,0,0,0,0,0,0
55.77,0,0,0,0,0,0,0,0,0,0,0
55.82,0,0,0,0,0,0,0,0,0,0,0
55.87,0,0,0,0,0,0,0,0,0,0,0
55.92,0,0,0,0,0,0,0,0,0,1,0
55.97,0,0,0,0,0,0,0,0,0,0,0
56.02,0,0,1,0,0,0,0,0,0,0,0
56.07,0,0,0,0,0,0,0,0,0,0,0
56.12,0,0,0,0,0,0,0,0,0,0,0
56.17,0,0,0,0,0,0,0,0,0,0,0
56.23,0,0,0,0,0,0,0,0,0,0,0
56.28,0,0,0,0,0,0,0,0,0,0,0
56.33,0,0,0,0,0,0,0,0,0,0,0
56.38,0,0,0,0,0,0,0,0,0,1,0
56.43,0,0,0,0,0,0,0,0,0,1,0
56.48,0,0,0,0,0,0,0,0,0,0,0
56.53,0,0,0,0,0,0,0,0,0,0,0
56.58,0,0,0,0,0,0,0,0,0,0,0
56.63,0,0,0,0,0,0,0,0,0,0,0
56.68,0,0,0,0,0,0,0,0,0,0,0
56.73,0,0,0,0,0,0,0,0,0,0,0
56.78,0,0,0,0,0,0,0,0,0,0,0
56.83,0,0,0,0,0,0,0,0,0,0,0
56.88,0,0,0,0,0,0,0,0,0,0,0
56.94,0,0,0,0,1,0,0,0,0,1,0
56.99,0,0,1,0,0,0,0,0,1,0,0
57.04,0,0,0,0,0,0,0,0,0,1,0
57.09,0,0,0,0,0,0,0,0,0,0,0
57.14,0,0,0,0,0,0,0,0,0,0,0
57.19,0,0,0,0,0,0,0,0,0,0,0
57.24,0,1,0,0,0,0,0,0,0,0,0
57.29,0,0,0,0,0,0,0,0,0,0,0
57.34,0,0,1,0,0,0,0,0,0,0,0
57.39,0,0,1,0,0,0,0,0,0,0,0
57.44,0,0,0,0,0,0,0,0,0,0,0
57.49,0,0,0,0,0,0,0,0,0,0,0
57.54,0,0,1,0,0,0,0,0,0,0,0
57.59,0,0,0,0,0,0,0,0,0,0,0
57.65,0,0,1,0,0,0,0,0,0,0,0
57.7,0,0,0,0,0,0,0,0,0,1,0
57.75,0,0,0,0,0,0,0,0,0,0,0
57.8,0,0,0,0,0,0,0,0,0,0,0
57.85,0,0,1,0,0,0,0,0,0,0,0
57.9,0,0,0,0,0,0,0,0,0,1,0
57.95,0,0,0,0,0,0,0,0,0,0,0
58,0,0,1,0,0,0,0,0,0,0,0
58.05,0,0,0,0,0,0,0,0,0,0,0
58.1,0,0,0,0,0,0,0,0,0,0,0
58.15,0,0,0,0,0,0,0,0,0,0,0
58.2,0,0,0,0,0,0,0,0,0,0,0
58.25,0,0,0,0,0,0,0,0,0,0,0
58.3,0,0,0,0,0,0,0,0,0,0,0
58.36,0,0,0,0,0,0,0,0,0,0,0
58.41,0,0,0,0,0,0,0,0,0,0,0
58.46,0,0,0,1,0,0,0,0,0,0,0
58.51,0,0,1,0,0,0,0,0,0,0,0
58.56,0,0,1,0,0,0,0,0,0,0,0
58.61,0,0,0,0,0,0,0,0,1,0,0
58.66,0,0,0,0,0,0,0,0,0,0,0
58.71,0,0,0,0,0,0,0,0,0,0,0
58.76,0,0,0,0,0,0,0,1,0,0,0
58.81,0,0,0,0,0,0,0,0,0,0,0
58.86,0,0,0,0,0,0,0,0,0,0,0
58.91,0,0,1,0,0,0,0,0,0,0,0
58.96,0,0,0,0,0,0,0,0,0,0,0
59.01,0,0,0,0,0,0,0,0,0,0,0
59.07,0,0,0,0,0,0,0,0,0,1,0
59.12,0,0,1,0,0,0,0,0,0,0,0
59.17,0,0,0,0,0,0,0,0,0,0,0
59.22,0,0,0,0,0,0,0,0,0,0,0
59.27,0,0,0,0,1,0,0,0,0,0,0
59.32,0,0,0,0,0,0,0,0,0,0,0
59.37,0,0,0,0,0,0,0,0,0,1,0
59.42,0,1,0,0,0,0,0,0,0,0,0
59.47,0,0,1,0,0,0,0,0,0,0,0
59.52,0,0,1,0,0,0,0,0,0,0,0
59.57,0,0,0,0,0,0,0,0,0,0,0
59.62,0,0,0,0,0,0,0,0,0,0,0
59.67,0,0,0,0,0,0,0,0,0,0,0
59.72,0,0,0,0,0,0,0,0,0,0,0
59.78,0,0,0,0,0,0,0,0,0,0,0
59.83,0,0,0,0,0,0,0,0,0,0,0
59.88,0,0,0,0,0,0,0,0,0,0,0
59.93,0,0,1,0,0,0,0,0,1,0,0
59.98,0,0,0,0,0,0,0,0,0,0,0
60.03,0,0,0,0,0,0,0,0,0,0,0
60.08,0,0,0,0,0,0,0,0,0,0,0
60.13,0,0,0,0,0,0,0,0,0,1,0
60.18,0,0,0,0,0,0,0,0,0,0,0
60.23,0,0,0,0,0,0,0,0,0,1,0
60.28,0,0,0,0,0,0,0,0,0,0,0
60.33,0,0,1,1,0,0,0,0,0,0,0
60.38,0,0,0,0,0,0,0,0,0,0,0
60.43,0,0,0,0,0,0,0,0,0,0,0
60.49,0,0,0,0,0,0,0,0,0,0,0
60.54,0,0,0,1,0,0,0,0,0,0,0
60.59,0,0,1,0,1,0,0,0,0,0,0
60.64,0,0,0,0,0,0,0,0,0,0,0
60.69,0,0,0,0,0,0,0,0,0,0,0
60.74,0,0,0,0,0,0,0,0,0,0,0
60.79,0,0,1,0,0,0,0,0,1,0,0
60.84,0,0,0,0,0,0,0,0,0,0,0
60.89,0,0,0,0,0,0,0,0,0,1,0
60.94,0,0,0,0,0,0,0,0,0,0,0
60.99,0,0,0,0,0,0,0,0,0,0,0
61.04,0,0,0,0,0,0,0,0,0,0,0
61.09,0,0,1,0,0,0,0,0,0,0,0
61.14,0,0,0,0,0,0,0,0,0,0,0
61.2,0,0,0,0,0,0,0,0,0,0,0
61.25,0,0,0,0,0,0,0,0,0,0,0
61.3,0,0,0,0,0,0,0,0,0,0,0
61.35,0,0,0,0,0,0,0,0,0,0,0
61.4,0,1,1,0,0,0,0,0,0,0,0
61.45,0,0,0,0,0,0,0,0,0,0,0
61.5,0,0,0,0,0,0,0,0,0,1,0
61.55,0,0,0,0,0,0,0,0,0,0,0
61.6,0,0,0,0,0,0,0,0,0,1,0
61.65,0,0,1,0,0,0,0,0,1,0,0
61.7,0,0,0,0,0,0,0,0,1,0,0
61.75,0,0,0,0,0,1,0,0,0,1,0
61.8,0,0,0,0,0,0,0,0,0,0,0
61.85,0,0,0,0,0,0,0,0,0,0,0
61.91,0,0,0,0,0,0,0,0,0,0,0
61.96,0,0,0,0,0,0,0,0,0,0,0
62.01,0,0,0,0,0,0,0,0,1,0,0
62.06,0,0,0,0,0,0,0,0,0,0,0
62.11,0,0,0,0,0,0,0,0,0,0,0
62.16,0,0,0,0,0,0,0,0,0,0,0
62.21,0,0,0,0,0,0,0,0,0,2,0
62.26,0,0,0,0,0,0,0,0,0,0,0
62.31,0,0,0,0,0,0,0,0,0,0,0
62.36,0,0,0,0,0,0,0,0,0,0,0
62.41,0,0,0,0,0,0,0,0,0,1,0
62.46,0,0,0,0,0,0,0,0,0,0,0
62.51,0,0,0,0,0,0,0,0,0,0,0
62.56,0,0,0,0,0,0,0,0,0,0,0
62.62,0,0,0,0,0,1,0,0,0,0,0
62.67,0,0,0,0,0,0,0,0,0,0,0
62.72,0,0,0,0,0,0,0,0,0,0,0
62.77,0,0,0,0,0,0,0,0,0,0,0
62.82,0,0,0,0,0,0,0,0,0,0,0
62.87,0,2,0,0,0,0,0,0,0,0,0
62.92,0,0,0,2,0,1,0,0,0,0,0
62.97,0,0,0,0,0,0,0,0,0,0,0
63.02,0,0,0,0,0,0,0,0,0,0,0
63.07,0,0,0,0,0,0,0,0,0,0,0
63.12,0,0,0,0,0,0,0,0,0,0,0
63.17,0,0,0,0,0,0,0,0,0,0,0
63.22,0,0,0,0,0,0,0,0,0,0,0
63.27,0,0,0,1,0,0,0,0,0,0,0
63.33,0,0,0,0,0,0,0,0,0,1,0
63.38,0,0,1,0,0,0,0,0,0,0,0
63.43,0,0,0,0,0,0,0,0,1,0,0
63.48,0,0,0,0,0,0,0,0,0,0,0
63.53,0,0,0,0,0,0,0,0,0,0,0
63.58,0,0,0,0,0,0,0,0,1,0,0
63.63,0,0,0,0,0,0,0,0,0,0,0
63.68,0,0,0,0,0,0,0,0,0,0,0
63.73,0,0,0,0,0,0,0,0,0,0,0
63.78,0,0,0,0,0,0,0,0,0,0,0
63.83,0,0,1,0,0,0,0,0,0,1,0
63.88,0,0,0,0,0,0,0,0,0,0,0
63.93,0,0,0,0,0,0,0,0,0,0,0
63.98,0,0,0,1,0,0,0,0,0,0,0
64.04,0,0,0,0,0,0,0,0,0,1,0
64.09,0,0,1,0,0,0,0,0,0,0,0
64.14,0,0,0,0,1,0,0,0,0,0,0
64.19,0,0,0,0,0,0,0,0,0,1,0
64.24,0,0,0,0,0,0,0,0,0,0,0
64.29,0,0,0,0,0,1,0,0,0,0,0
64.34,0,0,0,0,0,0,0,0,0,0,0
64.39,0,0,0,0,0,0,0,0,0,0,0
64.44,0,0,0,0,0,0,0,0,0,0,0
64.49,0,0,0,0,0,0,0,0,0,0,0
64.54,0,0,0,0,0,0,0,0,0,0,0
64.59,0,0,0,1,0,0,0,0,0,1,0
64.64,0,0,0,0,0,0,0,0,0,0,0
64.69,0,0,0,0,0,0,0,0,0,0,0
64.75,0,0,0,0,0,0,0,0,0,0,0
64.8,0,1,0,0,0,0,0,0,0,0,0
64.85,0,0,0,0,0,0,0,0,0,0,0
64.9,0,0,0,0,0,0,0,0,1,0,0
64.95,0,0,0,0,0,0,0,0,0,0,0
65,0,0,1,0,1,0,0,0,0,0,0
65.05,0,0,0,0,0,0,0,0,0,0,0
65.1,0,0,0,0,0,0,0,1,0,0,0
65.15,0,0,0,0,0,0,0,0,0,0,0
65.2,0,0,0,0,1,0,0,0,0,0,0
65.25,0,0,0,0,0,0,0,0,0,0,0
65.3,0,0,0,0,0,0,0,0,0,0,0
65.35,0,0,0,0,0,0,0,0,0,0,0
65.4,0,0,0,0,0,0,0,0,0,0,0
65.46,0,0,0,0,0,0,0,0,0,0,0
65.51,1,0,0,0,0,0,0,0,0,0,0
65.56,0,0,0,0,0,0,0,0,1,0,0
65.61,0,0,0,0,0,0,0,0,0,0,0
65.66,0,0,0,0,0,0,0,0,0,0,0
65.71,0,0,1,0,0,0,0,0,0,0,0
65.76,0,0,0,0,0,0,0,0,1,0,0
65.81,1,0,0,0,0,0,0,0,0,0,0
65.86,0,1,1,0,0,0,0,0,0,0,0
65.91,0,1,0,0,0,0,0,0,0,0,0
65.96,0,0,0,1,0,1,0,0,0,0,0
66.01,0,0,0,0,0,0,0,0,0,0,0
66.06,1,0,0,0,0,0,0,0,0,0,0
66.11,0,0,0,0,0,0,0,1,0,0,0
66.17,0,0,1,0,0,0,0,0,0,0,0
66.22,0,0,0,0,0,0,0,0,1,0,0
66.27,0,0,0,0,0,0,0,0,0,1,0
66.32,0,0,0,0,0,1,0,0,0,0,0
66.37,1,0,0,0,0,0,0,0,0,0,0
66.42,0,0,0,0,1,0,0,0,0,0,0
66.47,0,0,0,0,1,2,0,0,0,0,0
66.52,0,0,0,0,0,1,0,0,0,1,0
66.57,0,0,0,0,0,1,0,0,0,0,0
66.62,0,0,0,0,0,0,0,0,0,1,0
66.67,0,1,0,0,0,0,0,0,0,0,0
66.72,0,0,0,0,0,0,0,0,0,0,0
66.77,0,0,0,0,0,0,0,1,0,0,0
66.82,0,0,0,0,0,0,0,0,0,0,0
66.88,0,1,0,0,0,0,0,0,0,0,0
66.93,0,0,0,0,0,0,0,0,1,0,0
66.98,1,0,0,0,1,0,0,0,0,1,0
67.03,0,0,0,0,1,0,0,0,0,0,0
67.08,0,0,0,0,0,1,0,0,0,1,0
67.13,0,0,0,0,0,1,0,0,0,0,0
67.18,0,1,0,0,0,1,0,0,1,1,0
67.23,0,0,0,0,0,0,0,0,0,1,0
67.28,0,0,0,0,1,0,0,0,0,0,0
67.33,0,0,0,0,0,0,0,0,0,0,0
67.38,0,0,0,0,0,1,0,0,1,0,0
67.43,1,0,0,0,0,0,1,0,1,0,0
67.48,0,0,1,0,0,0,0,0,0,0,0
67.53,0,0,0,1,0,0,0,0,2,1,0
67.59,0,0,0,0,0,0,0,0,1,1,0
67.64,0,0,0,0,1,0,0,0,0,1,0
67.69,1,0,0,0,1,0,0,0,0,0,0
67.74,0,2,0,0,1,0,0,1,0,0,0
67.79,1,0,0,0,0,0,1,0,0,0,0
67.84,1,0,0,0,0,0,0,0,0,0,0
67.89,0,0,0,0,0,0,1,0,0,0,0
67.94,0,0,0,0,0,0,0,0,1,0,0
67.99,3,0,0,0,1,0,0,0,1,0,0
68.04,1,0,0,0,0,0,0,0,0,0,0
68.09,1,0,0,0,1,0,0,1,0,0,0
68.14,0,0,0,0,0,0,0,0,0,0,0
68.19,0,0,0,0,0,0,0,0,0,0,0
68.24,1,0,0,0,0,0,0,1,0,0,0
68.3,1,0,0,1,0,0,0,0,1,0,0
68.35,3,0,0,1,0,1,0,0,0,0,0
68.4,0,0,0,0,1,0,0,1,0,0,0
68.45,1,0,0,0,0,0,1,0,0,0,0
68.5,3,0,1,1,0,0,1,1,0,0,0
68.55,0,0,0,0,0,0,0,1,1,0,0
68.6,1,1,0,0,0,0,0,0,0,0,0
68.65,2,0,0,0,0,0,0,0,0,1,0
68.7,1,0,0,0,0,0,0,0,0,1,0
68.75,2,0,0,0,1,2,0,0,2,1,0
68.8,1,0,0,0,0,0,1,0,0,0,0
68.85,2,0,0,0,0,0,0,0,0,0,0
68.9,1,0,0,0,0,1,0,0,0,0,0
68.95,0,1,0,1,0,0,1,2,1,0,0
69.01,3,0,0,0,0,1,1,0,0,0,0
69.06,2,0,0,0,0,0,0,0,1,1,0
69.11,1,0,0,1,0,0,0,0,0,0,0
69.16,2,0,0,0,0,0,0,0,0,0,0
69.21,4,0,0,1,0,0,1,0,0,0,0
69.26,2,0,1,0,0,0,0,0,1,0,0
69.31,1,0,0,0,0,0,2,1,0,0,0
69.36,0,0,0,0,0,0,0,1,2,0,0
69.41,3,0,0,0,0,0,0,1,0,2,0
69.46,2,0,0,0,0,0,0,0,0,1,1
69.51,1,0,0,0,0,0,0,1,0,0,0
69.56,2,1,0,0,1,0,0,0,0,0,0
69.61,3,0,0,0,0,0,2,1,0,0,0
69.66,2,0,0,1,0,0,0,1,0,0,0
69.72,0,0,0,1,0,0,0,0,0,0,0
69.77,0,0,0,0,1,0,1,0,1,0,0
69.82,0,0,0,0,0,0,1,1,1,2,0
69.87,0,0,0,0,1,0,0,0,0,0,0
69.92,0,0,0,2,0,0,0,1,1,0,2
69.97,0,0,0,0,0,0,0,0,0,0,0
70.02,0,1,0,1,0,0,0,1,0,0,0
70.07,0,0,0,0,0,0,1,0,2,0,1
70.12,0,1,0,0,0,0,1,0,0,0,0
70.17,0,0,0,0,0,1,1,0,0,0,0
70.22,0,0,0,1,0,0,0,0,0,1,3
70.27,0,0,0,0,1,1,0,1,0,0,0
70.32,0,0,0,0,0,0,1,1,1,0,1
70.37,0,2,0,2,1,0,1,1,1,1,1
70.43,0,0,0,1,2,0,1,0,0,1,0
70.48,0,0,0,1,0,0,1,0,0,0,0
70.53,0,0,0,0,1,1,0,0,0,0,1
70.58,0,0,0,0,0,1,0,2,1,1,0
70.63,0,0,1,0,0,0,0,1,2,0,0
70.68,0,0,0,0,1,1,1,0,0,0,0
70.73,0,0,0,1,1,1,0,1,0,0,0
70.78,0,0,1,0,1,0,0,2,1,0,0
70.83,0,0,0,0,0,0,1,0,0,0,0
70.88,0,0,0,0,0,1,2,1,1,0,1
70.93,0,0,0,0,0,0,1,0,1,1,0
70.98,0,0,0,1,0,0,1,1,0,0,0
71.03,0,0,0,0,0,1,0,1,1,0,0
71.08,0,0,0,2,0,2,0,0,0,0,0
71.14,0,0,0,1,1,0,0,0,0,0,1
71.19,0,0,0,1,1,0,0,2,0,0,0
71.24,0,0,0,1,2,0,0,0,0,0,0
71.29,0,0,0,0,0,2,1,1,0,0,0
71.34,0,0,0,0,0,1,1,2,0,0,2
71.39,0,0,0,0,1,1,1,1,0,0,1
71.44,0,0,1,0,1,1,1,0,0,0,0
71.49,0,0,0,1,0,0,0,0,1,0,0
71.54,0,0,0,1,1,0,1,2,0,1,1
71.59,0,0,0,2,0,0,0,0,0,0,1
71.64,0,0,0,0,1,1,0,0,0,0,1
71.69,0,0,0,1,1,2,0,0,0,0,1
71.74,0,0,0,1,0,1,0,1,1,0,0
71.79,0,0,0,1,0,1,1,0,0,0,0
71.85,0,0,0,0,2,1,1,1,1,0,1
71.9,0,0,0,2,3,0,0,0,0,0,3
71.95,0,0,0,1,0,0,1,0,0,1,0
72,0,0,0,0,2,0,0,0,1,0,0
72.05,0,0,0,0,3,0,1,2,1,1,2
72.1,0,0,0,0,0,0,0,2,0,0,2
72.15,0,0,0,0,2,1,3,0,1,0,3
72.2,0,0,0,0,0,2,3,1,0,1,1
72.25,0,0,0,0,0,0,2,0,1,0,1
72.3,0,0,0,0,1,1,1,1,0,1,1
72.35,0,0,0,0,0,0,0,0,0,1,0
72.4,0,0,0,0,0,0,1,0,0,0,2
72.45,0,0,0,0,0,1,3,1,0,1,0
72.5,0,0,0,0,0,0,1,0,0,0,3
72.56,0,0,0,0,0,2,2,1,0,0,2
72.61,0,0,0,0,0,1,2,2,2,0,6
72.66,0,0,0,0,0,1,2,1,1,0,1
72.71,0,0,0,0,0,2,1,0,1,0,2
72.76,0,0,0,0,0,0,0,0,0,0,0
72.81,0,0,0,0,0,0,0,0,0,0,3
72.86,0,0,0,0,0,0,0,0,1,0,2
72.91,0,0,0,0,0,0,1,2,0,0,1
72.96,0,0,0,0,0,0,0,2,0,0,5
73.01,0,0,0,0,0,0,0,2,2,0,2
73.06,0,0,0,0,0,0,0,1,2,0,4
73.11,0,0,0,0,0,0,0,0,0,0,2
73.16,0,0,0,0,0,0,0,2,1,0,1
73.21,0,0,0,0,0,0,0,1,2,0,2
73.27,0,0,0,0,0,0,0,1,0,1,4
73.32,0,0,0,0,0,0,0,0,1,0,2
73.37,0,0,0,0,0,0,0,0,0,2,8
73.42,0,0,0,0,0,0,0,0,0,0,5
73.47,0,0,0,0,0,0,0,0,0,0,3
73.52,0,0,0,0,0,0,0,0,0,1,3
73.57,0,0,0,0,0,0,0,0,0,0,0
73.62,0,0,0,0,0,0,0,0,0,0,0
73.67,0,0,0,0,0,0,0,0,0,0,0
73.72,0,0,0,0,0,0,0,0,0,0,0
73.77,0,0,0,0,0,0,0,0,0,0,0
73.82,0,0,0,0,0,0,0,0,0,0,0
73.87,0,0,0,0,0,0,0,0,0,0,0
73.92,0,0,0,0,0,0,0,0,0,0,0
73.98,0,0,0,0,0,0,0,0,0,0,0
74.03,0,0,0,0,0,0,0,0,0,0,0
74.08,0,0,0,0,0,0,0,0,0,0,0
74.13,0,0,0,0,0,0,0,0,0,0,0
74.18,0,0,0,0,0,0,0,0,0,0,0
74.23,0,0,0,0,0,0,0,0,0,0,0
74.28,0,0,0,0,0,0,0,0,0,0,0
74.33,0,0,0,0,0,0,0,0,0,0,0
74.38,0,0,0,0,0,0,0,0,0,0,0
74.43,0,0,0,0,0,0,0,0,0,0,0
74.48,0,0,0,0,0,0,0,0,0,0,0
74.53,0,0,0,0,0,0,0,0,0,0,0
74.58,0,0,0,0,0,0,0,0,0,0,0
74.63,0,0,0,0,0,0,0,0,0,0,0
74.69,0,0,0,0,0,0,0,0,0,0,0
74.74,0,0,0,0,0,0,0,0,0,0,0
74.79,0,0,0,0,0,0,0,0,0,0,0
74.84,0,0,0,0,0,0,0,0,0,0,0
74.89,0,0,0,0,0,0,0,0,0,0,0
74.94,0,0,0,0,0,0,0,0,0,0,0
74.99,0,0,0,0,0,0,0,0,0,0,0
75.04,0,0,0,0,0,0,0,0,0,0,0
75.09,0,0,0,0,0,0,0,0,0,0,0
75.14,0,0,0,0,0,0,0,0,0,0,0
75.19,0,0,0,0,0,0,0,0,0,0,0
75.24,0,0,0,0,0,0,0,0,0,0,0
75.29,0,0,0,0,0,0,0,0,0,0,0
75.34,0,0,0,0,0,0,0,0,0,0,0
75.4,0,0,0,0,0,0,0,0,0,0,0
75.45,0,0,0,0,0,0,0,0,0,0,0
75.5,0,0,0,0,0,0,0,0,0,0,0
75.55,0,0,0,0,0,0,0,0,0,0,0
75.6,0,0,0,0,0,0,0,0,0,0,0
75.65,0,0,0,0,0,0,0,0,0,0,0
75.7,0,0,0,0,0,0,0,0,0,0,0
75.75,0,0,0,0,0,0,0,0,0,0,0
75.8,0,0,0,0,0,0,0,0,0,0,0
75.85,0,0,0,0,0,0,0,0,0,0,0
75.9,0,0,0,0,0,0,0,0,0,0,0
75.95,0,0,0,0,0,0,0,0,0,0,0
76,0,0,0,0,0,0,0,0,0,0,0
76.05,0,0,0,0,0,0,0,0,0,0,0
76.11,0,0,0,0,0,0,0,0,0,0,0
76.16,0,0,0,0,0,0,0,0,0,0,0
76.21,0,0,0,0,0,0,0,0,0,0,0
76.26,0,0,0,0,0,0,0,0,0,0,0
76.31,0,0,0,0,0,0,0,0,0,0,0
76.36,0,0,0,0,0,0,0,0,0,0,0
76.41,0,0,0,0,0,0,0,0,0,0,0
76.46,0,0,0,0,0,0,0,0,0,0,0
76.51,0,0,0,0,0,0,0,0,0,0,0
76.56,0,0,0,0,0,0,0,0,0,0,0
76.61,0,0,0,0,0,0,0,0,0,0,0
76.66,0,0,0,0,0,0,0,0,0,0,0
76.71,0,0,0,0,0,0,0,0,0,0,0
76.76,0,0,0,0,0,0,0,0,0,0,0
76.82,0,0,0,0,0,0,0,0,0,0,0
76.87,0,0,0,0,0,0,0,0,0,0,0
76.92,0,0,0,0,0,0,0,0,0,0,0
76.97,0,0,0,0,0,0,0,0,0,0,0
77.02,0,0,0,0,0,0,0,0,0,0,0
77.07,0,0,0,0,0,0,0,0,0,0,0
77.12,0,0,0,0,0,0,0,0,0,0,0
77.17,0,0,0,0,0,0,0,0,0,0,0
77.22,0,0,0,0,0,0,0,0,0,0,0
77.27,0,0,0,0,0,0,0,0,0,0,0
77.32,0,0,0,0,0,0,0,0,0,0,0
77.37,0,0,0,0,0,0,0,0,0,0,0
77.42,0,0,0,0,0,0,0,0,0,0,0
77.47,0,0,0,0,0,0,0,0,0,0,0
77.53,0,0,0,0,0,0,0,0,0,0,0
77.58,0,0,0,0,0,0,0,0,0,0,0
77.63,0,0,0,0,0,0,0,0,0,0,0
77.68,0,0,0,0,0,0,0,0,0,0,0
77.73,0,0,0,0,0,0,0,0,0,0,0
77.78,0,0,0,0,0,0,0,0,0,0,0
77.83,0,0,0,0,0,0,0,0,0,0,0
77.88,0,0,0,0,0,0,0,0,0,0,0
77.93,0,0,0,0,0,0,0,0,0,0,0
77.98,0,0,0,0,0,0,0,0,0,0,0
78.03,0,0,0,0,0,0,0,0,0,0,0
78.08,0,0,0,0,0,0,0,0,0,0,0
78.13,0,0,0,0,0,0,0,0,0,0,0
78.18,0,0,0,0,0,0,0,0,0,0,0
78.24,0,0,0,0,0,0,0,0,0,0,0
78.29,0,0,0,0,0,0,0,0,0,0,0
78.34,0,0,0,0,0,0,0,0,0,0,0
78.39,0,0,0,0,0,0,0,0,0,0,0
78.44,0,0,0,0,0,0,0,0,0,0,0
78.49,0,0,0,0,0,0,0,0,0,0,0
78.54,0,0,0,0,0,0,0,0,0,0,0
78.59,0,0,0,0,0,0,0,0,0,0,0
78.64,0,0,0,0,0,0,0,0,0,0,0
78.69,0,0,0,0,0,0,0,0,0,0,0
78.74,0,0,0,0,0,0,0,0,0,0,0
78.79,0,0,0,0,0,0,0,0,0,0,0
78.84,0,0,0,0,0,0,0,0,0,0,0
78.89,0,0,0,0,0,0,0,0,0,0,0
78.95,0,0,0,0,0,0,0,0,0,0,0
79,0,0,0,0,0,0,0,0,0,0,0
79.05,0,0,0,0,0,0,0,0,0,0,0
79.1,0,0,0,0,0,0,0,0,0,0,0
79.15,0,0,0,0,0,0,0,0,0,0,0
79.2,0,0,0,0,0,0,0,0,0,0,0
79.25,0,0,0,0,0,0,0,0,0,0,0
79.3,0,0,0,0,0,0,0,0,0,0,0
79.35,0,0,0,0,0,0,0,0,0,0,0
79.4,0,0,0,0,0,0,0,0,0,0,0
79.45,0,0,0,0,0,0,0,0,0,0,0
79.5,0,0,0,0,0,0,0,0,0,0,0
79.55,0,0,0,0,0,0,0,0,0,0,0
79.6,0,0,0,0,0,0,0,0,0,0,0
79.66,0,0,0,0,0,0,0,0,0,1,0
79.71,0,0,0,0,0,0,0,0,0,0,0
79.76,0,0,0,0,0,0,0,0,0,0,0
79.81,0,0,0,0,0,0,0,0,0,0,0
79.86,0,0,0,0,0,0,0,0,0,0,0
79.91,0,0,0,0,0,0,0,0,0,0,0
79.96,0,0,0,0,0,0,0,0,0,0,0
80.01,0,0,0,0,0,0,0,0,0,0,0
80.06,0,0,0,0,0,0,0,0,0,0,0
80.11,0,0,0,0,0,0,0,0,0,0,0
80.16,0,0,0,0,0,0,0,0,0,0,0
80.21,0,0,0,0,0,0,0,0,0,0,0
80.26,0,0,0,0,0,0,0,0,0,0,0
80.31,0,0,0,0,0,0,0,0,0,0,0
80.37,0,0,0,0,0,0,0,0,0,0,0
80.42,0,0,0,0,0,0,0,0,0,0,0
80.47,0,0,0,0,0,0,0,0,0,0,0
80.52,0,0,0,0,0,0,0,0,0,0,0
80.57,0,0,0,0,0,0,0,0,0,0,0
80.62,0,0,0,0,0,0,0,0,0,0,0
80.67,0,0,0,0,0,0,0,0,0,0,0
80.72,0,0,0,0,0,0,0,0,0,0,0
80.77,0,0,0,0,0,0,0,0,0,0,0
80.82,0,0,0,0,0,0,0,0,0,0,0
80.87,0,0,0,0,0,0,0,0,0,0,0
80.92,0,0,0,0,0,0,0,0,0,0,0
80.97,0,0,0,0,0,0,0,0,0,0,0
81.02,0,0,0,0,0,0,0,0,0,0,0
81.08,0,0,0,0,0,0,0,0,0,0,0
81.13,0,0,0,0,0,0,0,0,0,0,0
81.18,0,0,0,0,0,0,0,0,0,0,0
81.23,0,0,0,0,0,0,0,0,0,0,0
81.28,0,0,0,0,0,0,0,0,0,0,0
81.33,0,0,0,0,0,0,0,0,0,0,0
81.38,0,0,0,0,0,0,0,0,0,0,0
81.43,0,0,0,0,0,0,0,0,0,0,0
81.48,0,0,0,0,0,0,0,0,0,0,0
81.53,0,0,0,0,0,0,0,0,0,0,0
81.58,0,0,0,0,0,0,0,0,0,0,0
81.63,0,0,0,0,0,0,0,0,0,0,0
81.68,0,0,0,0,0,0,0,0,0,0,0
81.73,0,0,0,0,0,0,0,0,0,0,0
81.79,0,0,0,0,0,0,0,0,0,0,0
81.84,0,0,0,0,0,0,0,0,0,0,0
81.89,0,0,0,0,0,0,0,0,0,0,0
81.94,0,0,0,0,0,0,0,0,0,0,0
81.99,0,0,0,0,0,0,0,0,0,0,0
82.04,0,0,0,0,0,0,0,0,0,0,0
82.09,0,0,0,0,0,0,0,0,0,0,0
82.14,0,0,0,0,0,0,0,0,0,0,0
82.19,0,0,0,0,0,0,0,0,0,0,0
82.24,0,0,0,0,0,0,0,0,0,0,0
82.29,0,0,0,0,0,0,0,0,0,0,0
82.34,0,0,0,0,0,0,0,0,0,0,0
82.39,0,0,0,0,0,0,0,0,0,0,0
82.44,0,0,0,0,0,0,0,0,0,0,0
82.5,0,0,0,0,0,0,0,0,0,0,0
82.55,0,0,0,0,0,0,0,0,0,0,0
82.6,0,0,0,0,0,0,0,0,0,0,0
82.65,0,0,0,0,0,0,0,0,0,0,0
82.7,0,0,0,0,0,0,0,0,0,0,0
82.75,0,0,0,0,0,0,0,0,0,0,0
82.8,0,0,0,0,0,0,0,0,0,0,0
82.85,0,0,0,0,0,0,0,0,0,0,0
82.9,0,0,0,0,0,0,0,0,0,0,0
82.95,0,0,0,0,0,0,0,0,0,0,0
83,0,0,0,0,0,0,0,0,0,0,0
83.05,0,0,0,0,0,0,0,0,0,0,0
83.1,0,0,0,0,0,0,0,0,0,0,0
83.15,0,0,0,0,0,0,0,0,0,0,0
83.21,0,0,0,0,0,0,0,0,0,0,0
83.26,0,0,0,0,0,0,0,0,0,0,0
83.31,0,0,0,0,0,0,0,0,0,0,0
83.36,0,0,0,0,0,0,0,0,0,0,0
83.41,0,0,0,0,0,0,0,0,0,0,0
83.46,0,0,0,0,0,0,0,0,0,0,0
83.51,0,0,0,0,0,0,0,0,0,0,0
83.56,0,0,0,0,0,0,0,0,0,0,0
83.61,0,0,0,0,0,0,0,0,0,0,0
83.66,0,0,0,0,0,0,0,0,0,0,0
83.71,0,0,0,0,0,0,0,0,0,0,0
83.76,0,0,0,0,0,0,0,0,0,0,0
83.81,0,0,0,0,0,0,0,0,0,0,0
83.86,0,0,0,0,0,0,0,0,0,0,0
83.92,0,0,0,0,0,0,0,0,0,0,0
83.97,0,0,0,0,0,0,0,0,0,0,0
84.02,0,0,0,0,0,0,0,0,0,0,0
84.07,0,0,0,0,0,0,0,0,0,0,0
84.12,0,0,0,0,0,0,0,0,0,0,0
84.17,0,0,0,0,0,0,0,0,0,0,0
84.22,0,0,0,0,0,0,0,0,0,0,0
84.27,0,0,0,0,0,0,0,0,0,0,0
84.32,0,0,0,0,0,0,0,0,0,0,0
84.37,0,0,0,0,0,0,0,0,0,0,0
84.42,0,0,0,0,0,0,0,0,0,0,0
84.47,0,0,0,0,0,0,0,0,0,0,0
84.52,0,0,0,0,0,0,0,0,0,0,0
84.57,0,0,0,0,0,0,0,0,0,0,0
84.63,0,0,0,0,0,0,0,0,0,0,0
84.68,0,0,0,0,0,0,0,0,0,0,0
84.73,0,0,0,0,0,0,0,0,0,0,0
84.78,0,0,0,0,0,0,0,0,0,0,0
84.83,0,0,0,0,0,0,0,0,0,0,0
84.88,0,0,0,0,0,0,0,0,0,0,0
84.93,0,0,0,0,0,0,0,0,0,0,0
84.98,0,0,0,0,0,0,0,0,0,0,0
85.03,0,0,0,0,0,0,0,0,0,0,0
85.08,0,0,0,0,0,0,0,0,0,0,0
85.13,0,0,0,0,0,0,0,0,0,0,0
85.18,0,0,0,0,0,0,0,0,0,0,0
85.23,0,0,0,0,0,0,0,0,0,0,0
85.28,0,0,0,0,0,0,0,0,0,0,0
85.34,0,0,0,0,0,0,0,0,0,0,0
85.39,0,0,0,0,0,0,0,0,0,0,0
85.44,0,0,0,0,0,0,0,0,0,0,0
85.49,0,0,0,0,0,0,0,0,0,0,0
85.54,0,0,0,0,0,0,0,0,0,0,0
85.59,0,0,0,0,0,0,0,0,0,0,0
85.64,0,0,0,0,0,0,0,0,0,0,0
85.69,0,0,0,0,0,0,0,0,0,0,0
85.74,0,0,0,0,0,0,0,0,0,0,0
85.79,0,0,0,0,0,0,0,0,0,0,0
85.84,0,0,0,0,0,0,0,0,0,0,0
85.89,0,0,0,0,0,0,0,0,0,0,0
85.94,0,0,0,0,0,0,0,0,0,0,0
85.99,0,0,0,0,0,0,0,0,0,0,0
86.05,0,0,0,0,0,0,0,0,0,0,0
86.1,0,0,0,0,0,0,0,0,0,0,0
86.15,0,0,0,0,0,0,0,0,0,0,0
86.2,0,0,0,0,0,0,0,0,0,0,0
86.25,0,0,0,0,0,0,0,0,0,0,0
86.3,0,0,0,0,0,0,0,0,0,0,0
86.35,0,0,0,0,0,0,0,0,0,0,0
86.4,0,0,0,0,0,0,0,0,0,0,0
86.45,0,0,0,0,0,0,0,0,0,0,0
86.5,0,0,0,0,0,0,0,0,0,0,0
86.55,0,0,0,0,0,0,0,0,0,0,0
86.6,0,0,0,0,0,0,0,0,0,0,0
86.65,0,0,0,0,0,0,0,0,0,0,0
86.7,0,0,0,0,0,0,0,0,0,0,0
86.76,0,0,0,0,0,0,0,0,0,0,0
86.81,0,0,0,0,0,0,0,0,0,0,0
86.86,0,0,0,0,0,0,0,0,0,0,0
86.91,0,0,0,0,0,0,0,0,0,0,0
86.96,0,0,0,0,0,0,0,0,0,0,0
87.01,0,0,0,0,0,0,0,0,0,0,0
87.06,0,0,0,0,0,0,0,0,0,0,0
87.11,0,0,0,0,0,0,0,0,0,0,0
87.16,0,0,0,0,0,0,0,0,0,0,0
87.21,0,0,0,0,0,0,0,0,0,0,0
87.26,0,0,0,0,0,0,0,0,0,0,0
87.31,0,0,0,0,0,0,0,0,0,0,0
87.36,0,0,0,0,0,0,0,0,0,0,0
87.41,0,0,0,0,0,0,0,0,0,0,0
87.47,0,0,0,0,0,0,0,0,0,0,0
87.52,0,0,0,0,0,0,0,0,0,0,0
87.57,0,0,0,0,0,0,0,0,0,0,0
87.62,0,0,0,0,0,0,0,0,0,0,0
87.67,0,0,0,0,0,0,0,0,0,0,0
87.72,0,0,0,0,0,0,0,0,0,0,0
87.77,0,0,0,0,0,0,0,0,0,0,0
87.82,0,0,0,0,0,0,0,0,0,0,0
87.87,0,0,0,0,0,0,0,0,0,0,0
87.92,0,0,0,0,0,0,0,0,0,0,0
87.97,0,0,0,0,0,0,0,0,0,0,0
88.02,0,0,0,0,0,0,0,0,0,0,0
88.07,0,0,0,0,0,0,0,0,0,0,0
88.12,0,0,0,0,0,0,0,0,0,0,0
88.18,0,0,0,0,0,0,0,0,0,0,0
88.23,0,0,0,0,0,0,0,0,0,0,0
88.28,0,0,0,0,0,0,0,0,0,0,0
88.33,0,0,0,0,0,0,0,0,0,0,0
88.38,0,0,0,0,0,0,0,0,0,0,0
88.43,0,0,0,0,0,0,0,0,0,0,0
88.48,0,0,0,0,0,0,0,0,0,0,0
88.53,0,0,0,0,0,0,0,0,0,0,0
88.58,0,0,0,0,0,0,0,0,0,0,0
88.63,0,0,0,0,0,0,0,0,0,0,0
88.68,0,0,0,0,0,0,0,0,0,0,0
88.73,0,0,0,0,0,0,0,0,0,0,0
88.78,0,0,0,0,0,0,0,0,0,0,0
88.83,0,0,0,0,0,0,0,0,0,0,0
88.89,0,0,0,0,0,0,0,0,0,0,0
88.94,0,0,0,0,0,0,0,0,0,0,0
88.99,0,0,0,0,0,0,0,0,0,0,0
89.04,0,0,0,0,0,0,0,0,0,0,0
89.09,0,0,0,0,0,0,0,0,0,0,0
89.14,0,0,0,0,0,0,0,0,0,0,0
89.19,0,0,0,0,0,0,0,0,0,0,0
89.24,0,0,0,0,0,0,0,0,0,0,0
89.29,0,0,0,0,0,0,0,0,0,0,0
89.34,0,0,0,0,0,0,0,0,0,0,0
89.39,0,0,0,0,0,0,0,0,0,0,0
89.44,0,0,0,0,0,0,0,0,0,0,0
89.49,0,0,0,0,0,0,0,0,0,0,0
89.54,0,0,0,0,0,0,0,0,0,0,0
89.6,0,0,0,0,0,0,0,0,0,0,0
89.65,0,0,0,0,0,0,0,0,0,0,0
89.7,0,0,0,0,0,0,0,0,0,0,0
89.75,0,0,0,0,0,0,0,0,0,0,0
89.8,0,0,0,0,0,0,0,0,0,0,0
89.85,0,0,0,0,0,0,0,0,0,0,0
89.9,0,0,0,0,0,0,0,0,0,0,0
89.95,0,0,0,0,0,0,0,0,0,0,0
90,0,0,0,0,0,0,0,0,0,0,0
90.05,0,0,0,0,0,0,0,0,0,0,0
90.1,0,0,0,0,0,0,0,0,0,0,0
90.15,0,0,0,0,0,0,0,0,0,0,0
90.2,0,0,0,0,0,0,0,0,0,0,0
90.25,0,0,0,0,0,0,0,0,0,0,0
90.31,0,0,0,0,0,0,0,0,0,0,0
90.36,0,0,0,0,0,0,0,0,0,0,0
90.41,0,0,0,0,0,0,0,0,0,0,0
90.46,0,0,0,0,0,0,0,0,0,0,0
90.51,0,0,0,0,0,0,0,0,0,0,0
90.56,0,0,0,0,0,0,0,0,0,0,0
90.61,0,0,0,0,0,0,0,0,0,0,0
90.66,0,0,0,0,0,0,0,0,0,0,0
90.71,0,0,0,0,0,0,0,0,0,0,0
90.76,0,0,0,0,0,0,0,0,0,0,0
90.81,0,0,0,0,0,0,0,0,0,0,0
90.86,0,0,0,0,0,0,0,0,0,0,0
90.91,0,0,0,0,0,0,0,0,0,0,0
90.96,0,0,0,0,0,0,0,0,0,0,0
91.02,0,0,0,0,0,0,0,0,0,0,0
91.07,0,0,0,0,0,0,0,0,0,0,0
91.12,0,0,0,0,0,0,0,0,0,0,0
91.17,0,0,0,0,0,0,0,0,0,0,0
91.22,0,0,0,0,0,0,0,0,0,0,0
91.27,0,0,0,0,0,0,0,0,0,0,0
91.32,0,0,0,0,0,0,0,0,0,0,0
91.37,0,0,0,0,0,0,0,0,0,0,0
91.42,0,0,0,0,0,0,0,0,0,0,0
91.47,0,0,0,0,0,0,0,0,0,0,0
91.52,0,0,0,0,0,0,0,0,0,0,0
91.57,0,0,0,0,0,0,0,0,0,0,0
91.62,0,0,0,0,0,0,0,0,0,0,0
91.67,0,0,0,0,0,0,0,0,0,0,0
91.73,0,0,0,0,0,0,0,0,0,0,0
91.78,0,0,0,0,0,0,0,0,0,0,0
91.83,0,0,0,0,0,0,0,0,0,0,0
91.88,0,0,0,0,0,0,0,0,0,0,0
91.93,0,0,0,0,0,0,0,0,0,0,0
91.98,0,0,0,0,0,0,0,0,0,0,0
92.03,0,0,0,0,0,0,0,0,0,0,0
92.08,0,0,0,0,0,0,0,0,0,0,0
92.13,0,0,0,0,0,0,0,0,0,0,0
92.18,0,0,0,0,0,0,0,0,0,0,0
92.23,0,0,0,0,0,0,0,0,0,0,0
92.28,0,0,0,0,0,0,0,0,0,0,0
92.33,0,0,0,0,0,0,0,0,0,0,0
92.38,0,0,0,0,0,0,0,0,0,0,0
92.44,0,0,0,0,0,0,0,0,0,0,0
92.49,0,0,0,0,0,0,0,0,0,0,0
92.54,0,0,0,0,0,0,0,0,0,0,0
92.59,0,0,0,0,0,0,0,0,0,0,0
92.64,0,0,0,0,0,0,0,0,0,0,0
92.69,0,0,0,0,0,0,0,0,0,0,0
92.74,0,0,0,0,0,0,0,0,0,0,0
92.79,0,0,0,0,0,0,0,0,0,0,0
92.84,0,0,0,0,0,0,0,0,0,0,0
92.89,0,0,0,0,0,0,0,0,0,0,0
92.94,0,0,0,0,0,0,0,0,0,0,0
92.99,0,0,0,0,0,0,0,0,0,0,0
93.04,0,0,0,0,0,0,0,0,0,0,0
93.09,0,0,0,0,0,0,0,0,0,0,0
93.15,0,0,0,0,0,0,0,0,0,0,0
93.2,0,0,0,0,0,0,0,0,0,0,0
93.25,0,0,0,0,0,0,0,0,0,0,0
93.3,0,0,0,0,0,0,0,0,0,0,0
93.35,0,0,0,0,0,0,0,0,0,0,0
93.4,0,0,0,0,0,0,0,0,0,0,0
93.45,0,0,0,0,0,0,0,0,0,0,0
93.5,0,0,0,0,0,0,0,0,0,0,0
93.55,0,0,0,0,0,0,0,0,0,0,0
93.6,0,0,0,0,0,0,0,0,0,0,0
93.65,0,0,0,0,0,0,0,0,0,0,0
93.7,0,0,0,0,0,0,0,0,0,0,0
93.75,0,0,0,0,0,0,0,0,0,0,0
93.8,0,0,0,0,0,0,0,0,0,0,0
93.86,0,0,0,0,0,0,0,0,0,0,0
93.91,0,0,0,0,0,0,0,0,0,0,0
93.96,0,0,0,0,0,0,0,0,0,0,0
94.01,0,0,0,0,0,0,0,0,0,0,0
94.06,0,0,0,0,0,0,0,0,0,0,0
94.11,0,0,0,0,0,0,0,0,0,0,0
94.16,0,0,0,0,0,0,0,0,0,0,0
94.21,0,0,0,0,0,0,0,0,0,0,0
94.26,0,0,0,0,0,0,0,0,0,0,0
94.31,0,0,0,0,0,0,0,0,0,0,0
94.36,0,0,0,0,0,0,0,0,0,0,0
94.41,0,0,0,0,0,0,0,0,0,0,0
94.46,0,0,0,0,0,0,0,0,0,0,0
94.51,0,0,0,0,0,0,0,0,0,0,0
94.57,0,0,0,0,0,0,0,0,0,0,0
94.62,0,0,0,0,0,0,0,0,0,0,0
94.67,0,0,0,0,0,0,0,0,0,0,0
94.72,0,0,0,0,0,0,0,0,0,0,0
94.77,0,0,0,0,0,0,0,0,0,0,0
94.82,0,0,0,0,0,0,0,0,0,0,0
94.87,0,0,0,0,0,0,0,0,0,0,0
94.92,0,0,0,0,0,0,0,0,0,0,0
94.97,0,0,0,0,0,0,0,0,0,0,0
95.02,0,0,0,0,0,0,0,0,0,0,0
95.07,0,0,0,0,0,0,0,0,0,0,0
95.12,0,0,0,0,0,0,0,0,0,0,0
95.17,0,0,0,0,0,0,0,0,0,0,0
95.22,0,0,0,0,0,0,0,0,0,0,0
95.28,0,0,0,0,0,0,0,0,0,0,0
95.33,0,0,0,0,0,0,0,0,0,0,0
95.38,0,0,0,0,0,0,0,0,0,0,0
95.43,0,0,0,0,0,0,0,0,0,0,0
95.48,0,0,0,0,0,0,0,0,0,0,0
95.53,0,0,0,0,0,0,0,0,0,0,0
95.58,0,0,0,0,0,0,0,0,0,0,0
95.63,0,0,0,0,0,0,0,0,0,0,0
95.68,0,0,0,0,0,0,0,0,0,0,0
95.73,0,0,0,0,0,0,0,0,0,0,0
95.78,0,0,0,0,0,0,0,0,0,0,0
95.83,0,0,0,0,0,0,0,0,0,0,0
95.88,0,0,0,0,0,0,0,0,0,0,0
95.93,0,0,0,0,0,0,0,0,0,0,0
95.99,0,0,0,0,0,0,0,0,0,0,0
96.04,0,0,0,0,0,0,0,0,0,0,0
96.09,0,0,0,0,0,0,0,0,0,0,0
96.14,0,0,0,0,0,0,0,0,0,0,0
96.19,0,0,0,0,0,0,0,0,0,0,0
96.24,0,0,0,0,0,0,0,0,0,0,0
96.29,0,0,0,0,0,0,0,0,0,0,0
96.34,0,0,0,0,0,0,0,0,0,0,0
96.39,0,0,0,0,0,0,0,0,0,0,0
96.44,0,0,0,0,0,0,0,0,0,0,0
96.49,0,0,0,0,0,0,0,0,0,0,0
96.54,0,0,0,0,0,0,0,0,0,0,0
96.59,0,0,0,0,0,0,0,0,0,0,0
96.64,0,0,0,0,0,0,0,0,0,0,0
96.7,0,0,0,0,0,0,0,0,0,0,0
96.75,0,0,0,0,0,0,0,0,0,0,0
96.8,0,0,0,0,0,0,0,0,0,0,0
96.85,0,0,0,0,0,0,0,0,0,0,0
96.9,0,0,0,0,0,0,0,0,0,0,0
96.95,0,0,0,0,0,0,0,0,0,0,0
97,0,0,0,0,0,0,0,0,0,0,0
97.05,0,0,0,0,0,0,0,0,0,0,0
97.1,0,0,0,0,0,0,0,0,0,0,0
97.15,0,0,0,0,0,0,0,0,0,0,0
97.2,0,0,0,0,0,0,0,0,0,0,0
97.25,0,0,0,0,0,0,0,0,0,0,0
97.3,0,0,0,0,0,0,0,0,0,0,0
97.35,0,0,0,0,0,0,0,0,0,0,0
97.41,0,0,0,0,0,0,0,0,0,0,0
97.46,0,0,0,0,0,0,0,0,0,0,0
97.51,0,0,0,0,0,0,0,0,0,0,0
97.56,0,0,0,0,0,0,0,0,0,0,0
97.61,0,0,0,0,0,0,0,0,0,0,0
97.66,0,0,0,0,0,0,0,0,0,0,0
97.71,0,0,0,0,0,0,0,0,0,0,0
97.76,0,0,0,0,0,0,0,0,0,0,0
97.81,0,0,0,0,0,0,0,0,0,0,0
97.86,0,0,0,0,0,0,0,0,0,0,0
97.91,0,0,0,0,0,0,0,0,0,0,0
97.96,0,0,0,0,0,0,0,0,0,0,0
98.01,0,0,0,0,0,0,0,0,0,0,0
98.06,0,0,0,0,0,0,0,0,0,0,0
98.12,0,0,0,0,0,0,0,0,0,0,0
98.17,0,0,0,0,0,0,0,0,0,0,0
98.22,0,0,0,0,0,0,0,0,0,0,0
98.27,0,0,0,0,0,0,0,0,0,0,0
98.32,0,0,0,0,0,0,0,0,0,0,0
98.37,0,0,0,0,0,0,0,0,0,0,0
98.42,0,0,0,0,0,0,0,0,0,0,0
98.47,0,0,0,0,0,0,0,0,0,0,0
98.52,0,0,0,0,0,0,0,0,0,0,0
98.57,0,0,0,0,0,0,0,0,0,0,0
98.62,0,0,0,0,0,0,0,0,0,0,0
98.67,0,0,0,0,0,0,0,0,0,0,0
98.72,0,0,0,0,0,0,0,0,0,0,0
98.77,0,0,0,0,0,0,0,0,0,0,0
98.83,0,0,0,0,0,0,0,0,0,0,0
98.88,0,0,0,0,0,0,0,0,0,0,0
98.93,0,0,0,0,0,0,0,0,0,0,0
98.98,0,0,0,0,0,0,0,0,0,0,0
99.03,0,0,0,0,0,0,0,0,0,0,0
99.08,0,0,0,0,0,0,0,0,0,0,0
99.13,0,0,0,0,0,0,0,0,0,0,0
99.18,0,0,0,0,0,0,0,0,0,0,0
99.23,0,0,0,0,0,0,0,0,0,0,0
99.28,0,0,0,0,0,0,0,0,0,0,0
99.33,0,0,0,0,0,0,0,0,0,0,0
99.38,0,0,0,0,0,0,0,0,0,0,0
99.43,0,0,0,0,0,0,0,0,0,0,0
99.48,0,0,0,0,0,0,0,0,0,0,0
99.54,0,0,0,0,0,0,0,0,0,0,0
99.59,0,0,0,0,0,0,0,0,0,0,0
99.64,0,0,0,0,0,0,0,0,0,0,0
99.69,0,0,0,0,0,0,0,0,0,0,0
99.74,0,0,0,0,0,0,0,0,0,0,0
99.79,0,0,0,0,0,0,0,0,0,0,0
99.84,0,0,0,0,0,0,0,0,0,0,0
99.89,0,0,0,0,0,0,0,0,0,0,0
99.94,0,0,0,0,0,0,0,0,0,0,0
99.99,0,0,0,0,0,0,0,0,0,0,0
100.04,0,0,0,0,0,0,0,0,0,0,0
100.09,0,0,0,0,0,0,0,0,0,0,0
100.14,0,0,0,0,0,0,0,0,0,0,0
100.19,0,0,0,0,0,0,0,0,0,0,0
100.25,0,0,0,0,0,0,0,0,0,0,0
100.3,0,0,0,0,0,0,0,0,0,0,0
100.35,0,0,0,0,0,0,0,0,0,0,0
100.4,0,0,0,0,0,0,0,0,0,0,0
100.45,0,0,0,0,0,0,0,0,0,0,0
100.5,0,0,0,0,0,0,0,0,0,0,0
100.55,0,0,0,0,0,0,0,0,0,0,0
100.6,0,0,0,0,0,0,0,0,0,0,0
100.65,0,0,0,0,0,0,0,0,0,0,0
100.7,0,0,0,0,0,0,0,0,0,0,0
100.75,0,0,0,0,0,0,0,0,0,0,0
100.8,0,0,0,0,0,0,0,0,0,0,0
100.85,0,0,0,0,0,0,0,0,0,0,0
100.9,0,0,0,0,0,0,0,0,0,0,0
100.96,0,0,0,0,0,0,0,0,0,0,0
101.01,0,0,0,0,0,0,0,0,0,0,0
101.06,0,0,0,0,0,0,0,0,0,0,0
101.11,0,0,0,0,0,0,0,0,0,0,0
101.16,0,0,0,0,0,0,0,0,0,0,0
101.21,0,0,0,0,0,0,0,0,0,0,0
101.26,0,0,0,0,0,0,0,0,0,0,0
101.31,0,0,0,0,0,0,0,0,0,0,0
101.36,0,0,0,0,0,0,0,0,0,0,0
101.41,0,0,0,0,0,0,0,0,0,0,0
101.46,0,0,0,0,0,0,0,0,0,0,0
101.51,0,0,0,0,0,0,0,0,0,0,0
101.56,0,0,0,0,0,0,0,0,0,0,0
101.61,0,0,0,0,0,0,0,0,0,0,0
101.67,0,0,0,0,0,0,0,0,0,0,0
101.72,0,0,0,0,0,0,0,0,0,0,0
101.77,0,0,0,0,0,0,0,0,0,0,0
101.82,0,0,0,0,0,0,0,0,0,0,0
101.87,0,0,0,0,0,0,0,0,0,0,0
101.92,0,0,0,0,0,0,0,0,0,0,0
101.97,0,0,0,0,0,0,0,0,0,0,0
102.02,0,0,0,0,0,0,0,0,0,0,0
102.07,0,0,0,0,0,0,0,0,0,0,0
102.12,0,0,0,0,0,0,0,0,0,0,0
102.17,0,0,0,0,0,0,0,0,0,0,0
102.22,0,0,0,0,0,0,0,0,0,0,0
102.27,0,0,0,0,0,0,0,0,0,0,0
102.32,0,0,0,0,0,0,0,0,0,0,0
102.38,0,0,0,0,0,0,0,0,0,0,0
102.43,0,0,0,0,0,0,0,0,0,0,0
102.48,0,0,0,0,0,0,0,0,0,0,0
102.53,0,0,0,0,0,0,0,0,0,0,0
102.58,0,0,0,0,0,0,0,0,0,0,0
102.63,0,0,0,0,0,0,0,0,0,0,0
102.68,0,0,0,0,0,0,0,0,0,0,0
102.73,0,0,0,0,0,0,0,0,0,0,0
102.78,0,0,0,0,0,0,0,0,0,0,0
102.83,0,0,0,0,0,0,0,0,0,0,0
